x_pos,y_pos,channel_1,channel_2,channel_3,channel_4
2491.0,1219.0,0,0,0,0
2491.0,1219.0,551,86,24,14
2489.0,1217.0,120,86,24,19
2488.0,1216.0,120,86,24,25
2484.0,1214.0,120,85,24,26
2482.0,1212.0,120,86,24,26
2482.0,1212.0,119,86,24,25
2480.0,1211.0,119,85,24,25
2478.0,1209.0,120,86,24,25
2477.0,1207.0,120,85,24,25
2477.0,1207.0,119,85,24,25
2476.0,1207.0,119,85,24,25
2475.0,1205.0,119,85,24,25
2474.0,1205.0,119,84,24,25
2474.0,1205.0,119,85,24,26
2472.0,1202.0,119,85,24,25
2471.0,1201.0,119,85,24,25
2471.0,1200.0,119,84,24,25
2469.0,1199.0,118,84,24,25
2469.0,1197.0,118,84,25,25
2468.0,1196.0,118,84,26,25
2468.0,1196.0,118,84,28,25
2467.0,1194.0,118,84,30,25
2467.0,1193.0,118,84,31,25
2466.0,1192.0,118,84,31,25
2466.0,1192.0,118,83,31,25
2466.0,1190.0,118,83,30,25
2466.0,1190.0,118,84,31,25
2466.0,1190.0,117,83,31,25
2465.0,1189.0,116,83,30,25
2465.0,1186.0,116,83,30,25
2465.0,1185.0,116,83,30,25
2465.0,1185.0,116,83,30,25
2465.0,1184.0,116,83,30,25
2465.0,1183.0,116,83,30,25
2465.0,1183.0,116,83,30,25
2465.0,1182.0,115,83,30,25
2465.0,1180.0,116,83,30,24
2465.0,1180.0,115,83,30,24
2465.0,1179.0,115,83,30,24
2465.0,1177.0,115,83,30,24
2465.0,1177.0,115,82,30,24
2465.0,1176.0,115,83,30,24
2465.0,1175.0,115,82,30,24
2465.0,1173.0,115,82,30,25
2465.0,1172.0,115,82,30,24
2465.0,1172.0,115,82,29,24
2465.0,1172.0,115,103,30,24
2466.0,1170.0,115,103,30,25
2466.0,1168.0,115,102,30,25
2466.0,1168.0,115,102,30,24
2467.0,1168.0,115,102,30,24
2468.0,1166.0,115,102,29,24
2468.0,1166.0,115,102,30,24
2468.0,1165.0,115,102,30,24
2469.0,1164.0,115,101,30,24
2470.0,1162.0,115,101,30,24
2470.0,1161.0,114,100,30,24
2471.0,1160.0,114,100,30,24
2471.0,1160.0,114,100,29,24
2472.0,1159.0,114,100,29,24
2473.0,1159.0,114,100,30,24
2473.0,1157.0,113,100,29,24
2475.0,1156.0,113,99,30,24
2475.0,1156.0,113,100,29,24
2476.0,1154.0,113,99,29,24
2478.0,1152.0,113,99,29,24
2478.0,1151.0,113,99,30,24
2480.0,1150.0,113,99,33,24
2481.0,1149.0,113,99,34,24
2481.0,1149.0,112,99,35,24
2483.0,1147.0,112,99,34,24
2484.0,1146.0,112,99,35,24
2485.0,1145.0,112,99,34,24
2486.0,1145.0,112,99,34,24
2486.0,1145.0,112,98,34,24
2488.0,1143.0,112,98,34,24
2488.0,1143.0,112,98,34,24
2489.0,1141.0,112,98,34,24
2490.0,1141.0,112,98,34,24
2490.0,1141.0,111,97,33,24
2492.0,1139.0,112,98,34,24
2494.0,1138.0,111,97,33,24
2494.0,1138.0,111,97,34,24
2495.0,1137.0,111,97,33,24
2496.0,1136.0,111,97,33,24
2496.0,1136.0,111,97,33,24
2499.0,1134.0,111,97,33,24
2500.0,1133.0,110,97,33,24
2500.0,1133.0,111,97,33,24
2501.0,1133.0,110,97,33,24
2504.0,1130.0,110,97,33,24
2505.0,1130.0,110,103,33,24
2507.0,1128.0,110,126,33,24
2507.0,1128.0,110,125,33,24
2509.0,1127.0,110,124,33,24
2510.0,1127.0,110,124,33,23
2512.0,1125.0,110,124,33,24
2514.0,1124.0,109,124,33,23
2514.0,1124.0,109,124,33,24
2516.0,1123.0,109,124,33,24
2518.0,1122.0,108,123,33,23
2520.0,1121.0,109,124,33,24
2523.0,1119.0,108,123,33,24
2524.0,1118.0,109,123,33,24
2527.0,1116.0,108,123,33,23
2527.0,1116.0,108,122,33,23
2529.0,1116.0,108,122,32,23
2531.0,1115.0,108,122,32,23
2531.0,1115.0,108,122,32,23
2532.0,1113.0,108,121,33,23
2534.0,1113.0,108,121,32,24
2537.0,1112.0,108,121,34,24
2537.0,1112.0,108,121,39,23
2539.0,1111.0,108,121,44,24
2541.0,1110.0,112,121,44,23
2542.0,1109.0,120,120,45,23
2542.0,1109.0,127,120,45,23
2544.0,1108.0,127,120,44,23
2546.0,1107.0,127,120,44,23
2548.0,1106.0,127,120,44,23
2551.0,1105.0,127,120,44,23
2551.0,1105.0,127,120,44,23
2551.0,1105.0,126,120,44,23
2553.0,1103.0,127,120,44,23
2555.0,1103.0,126,120,44,23
2555.0,1103.0,126,120,44,23
2557.0,1102.0,126,120,44,23
2559.0,1101.0,126,120,44,23
2561.0,1100.0,126,119,44,22
2562.0,1099.0,125,119,44,23
2565.0,1098.0,125,119,44,23
2565.0,1098.0,125,119,44,23
2565.0,1098.0,125,119,44,23
2567.0,1097.0,125,118,44,22
2569.0,1096.0,124,118,44,23
2571.0,1095.0,124,118,44,23
2572.0,1095.0,124,118,43,22
2574.0,1093.0,124,118,43,22
2574.0,1093.0,124,270,44,22
2575.0,1093.0,124,269,43,22
2577.0,1092.0,124,269,43,23
2578.0,1092.0,124,268,44,23
2578.0,1092.0,124,268,43,22
2579.0,1091.0,123,268,43,22
2581.0,1091.0,123,268,43,22
2582.0,1090.0,123,268,43,22
2582.0,1090.0,123,267,43,22
2584.0,1089.0,123,267,43,22
2585.0,1089.0,122,267,43,22
2586.0,1089.0,122,267,43,22
2586.0,1089.0,122,267,43,22
2588.0,1088.0,121,267,43,22
2588.0,1088.0,121,266,43,22
2589.0,1087.0,121,265,42,22
2589.0,1087.0,121,265,43,22
2591.0,1087.0,121,265,43,22
2591.0,1087.0,121,265,42,22
2592.0,1086.0,121,265,43,22
2592.0,1086.0,120,265,43,22
2593.0,1086.0,120,265,45,22
2594.0,1086.0,121,264,46,22
2595.0,1085.0,122,263,47,22
2596.0,1085.0,126,264,46,22
2596.0,1085.0,127,263,46,22
2597.0,1084.0,127,263,46,22
2597.0,1084.0,127,263,46,22
2597.0,1084.0,127,263,46,22
2597.0,1084.0,127,263,46,22
2599.0,1084.0,127,263,46,22
2599.0,1084.0,127,263,46,21
2600.0,1084.0,127,263,46,22
2600.0,1083.0,127,263,46,22
2600.0,1083.0,127,263,45,21
2600.0,1083.0,127,263,45,21
2601.0,1083.0,126,263,45,21
2601.0,1083.0,126,262,46,22
2601.0,1083.0,126,262,46,21
2602.0,1083.0,126,262,45,22
2602.0,1083.0,126,262,45,21
2602.0,1083.0,126,262,45,21
2602.0,1083.0,126,261,45,21
2602.0,1083.0,125,261,45,21
2603.0,1083.0,125,261,45,21
2603.0,1083.0,125,260,45,21
2603.0,1083.0,124,281,45,21
2603.0,1083.0,124,280,44,20
2603.0,1083.0,124,280,44,20
2603.0,1083.0,124,280,44,21
2603.0,1083.0,124,280,44,21
2603.0,1083.0,124,280,44,21
2603.0,1083.0,123,280,45,20
2603.0,1083.0,124,280,44,21
2603.0,1083.0,123,279,44,20
2603.0,1083.0,123,279,44,21
2603.0,1083.0,123,279,44,20
2603.0,1083.0,123,279,44,21
2603.0,1083.0,123,279,44,21
2602.0,1083.0,123,279,44,20
2602.0,1083.0,123,278,44,20
2601.0,1083.0,123,278,44,20
2601.0,1083.0,121,278,44,20
2600.0,1083.0,122,277,44,20
2600.0,1083.0,121,277,44,21
2600.0,1083.0,121,277,44,20
2599.0,1083.0,121,276,44,20
2599.0,1083.0,121,276,46,20
2598.0,1083.0,121,276,48,20
2598.0,1083.0,121,276,48,20
2597.0,1083.0,123,276,48,20
2597.0,1083.0,126,275,48,20
2597.0,1083.0,126,275,48,20
2596.0,1083.0,125,275,48,20
2595.0,1084.0,125,275,48,20
2595.0,1084.0,125,275,47,20
2594.0,1085.0,124,275,47,20
2592.0,1085.0,124,275,48,20
2592.0,1085.0,124,274,47,20
2591.0,1085.0,124,274,47,20
2591.0,1085.0,124,274,47,20
2589.0,1085.0,124,273,47,20
2589.0,1085.0,124,273,47,20
2587.0,1086.0,124,273,47,19
2586.0,1086.0,124,273,47,20
2586.0,1086.0,123,273,47,20
2585.0,1087.0,123,273,47,20
2582.0,1087.0,123,272,47,20
2580.0,1087.0,123,272,47,20
2579.0,1087.0,123,272,46,19
2577.0,1088.0,123,271,47,19
2577.0,1088.0,123,271,46,20
2576.0,1088.0,122,292,47,20
2574.0,1089.0,121,291,46,20
2572.0,1089.0,122,291,47,19
2572.0,1089.0,121,291,47,20
2570.0,1089.0,121,290,46,19
2568.0,1089.0,121,290,46,19
2566.0,1090.0,121,289,46,19
2566.0,1090.0,121,289,46,20
2563.0,1090.0,121,289,46,19
2561.0,1091.0,121,289,46,20
2561.0,1091.0,121,289,46,19
2559.0,1092.0,120,288,46,19
2557.0,1092.0,120,288,46,19
2552.0,1092.0,120,287,46,19
2552.0,1092.0,120,287,46,19
2550.0,1092.0,120,287,46,19
2547.0,1093.0,120,287,46,19
2544.0,1093.0,120,287,45,19
2542.0,1094.0,120,287,46,19
2538.0,1095.0,120,287,45,19
2538.0,1095.0,120,287,46,19
2535.0,1095.0,119,286,46,19
2533.0,1096.0,119,286,47,19
2531.0,1096.0,119,286,47,19
2526.0,1096.0,119,286,47,19
2526.0,1096.0,119,286,47,19
2523.0,1096.0,118,286,47,19
2518.0,1097.0,119,286,47,19
2515.0,1097.0,118,285,46,19
2513.0,1098.0,118,284,47,19
2513.0,1098.0,118,284,46,19
2509.0,1098.0,118,284,46,19
2509.0,1098.0,117,284,46,19
2506.0,1099.0,118,284,46,19
2502.0,1099.0,117,284,46,19
2498.0,1100.0,117,284,46,19
2498.0,1100.0,117,284,47,19
2494.0,1100.0,117,283,46,19
2494.0,1100.0,116,283,46,19
2491.0,1100.0,116,283,46,19
2486.0,1100.0,116,283,46,19
2486.0,1100.0,116,283,46,19
2483.0,1101.0,115,282,46,19
2479.0,1101.0,115,281,46,19
2479.0,1101.0,115,281,46,19
2476.0,1101.0,115,281,46,19
2470.0,1102.0,115,297,46,19
2470.0,1102.0,115,296,45,19
2466.0,1102.0,115,295,46,19
2463.0,1103.0,115,295,45,19
2459.0,1103.0,115,295,46,19
2459.0,1103.0,115,295,46,19
2456.0,1103.0,115,295,45,19
2456.0,1103.0,115,295,45,19
2450.0,1104.0,114,295,45,19
2445.0,1104.0,115,295,45,19
2445.0,1104.0,114,295,45,19
2442.0,1104.0,114,294,45,19
2437.0,1104.0,113,294,45,19
2437.0,1104.0,113,294,44,20
2432.0,1104.0,113,294,45,20
2429.0,1105.0,113,293,44,20
2424.0,1105.0,113,292,45,20
2424.0,1105.0,113,293,45,20
2418.0,1106.0,113,293,44,20
2413.0,1106.0,112,292,45,20
2410.0,1106.0,113,292,45,20
2410.0,1106.0,112,291,44,20
2405.0,1106.0,112,292,46,20
2401.0,1106.0,113,291,46,20
2395.0,1107.0,115,291,45,20
2395.0,1107.0,114,291,45,20
2392.0,1107.0,116,291,46,20
2386.0,1107.0,115,291,45,20
2381.0,1107.0,116,291,45,20
2381.0,1107.0,115,290,45,20
2376.0,1107.0,116,290,46,20
2372.0,1107.0,115,290,45,20
2372.0,1107.0,115,289,45,20
2367.0,1107.0,115,289,45,20
2361.0,1108.0,115,289,44,20
2361.0,1108.0,115,289,45,19
2358.0,1108.0,115,289,45,20
2352.0,1108.0,115,289,45,20
2352.0,1108.0,115,287,45,20
2348.0,1108.0,115,288,44,20
2345.0,1108.0,115,287,44,19
2345.0,1108.0,114,287,44,19
2339.0,1108.0,114,287,44,19
2333.0,1108.0,113,287,45,20
2330.0,1108.0,113,287,44,19
2330.0,1108.0,113,287,44,19
2324.0,1108.0,113,304,44,19
2319.0,1108.0,113,304,44,19
2313.0,1108.0,113,303,44,19
2310.0,1108.0,113,303,44,19
2305.0,1108.0,112,302,44,19
2305.0,1108.0,112,302,44,19
2300.0,1108.0,112,302,44,19
2295.0,1108.0,112,302,44,19
2295.0,1108.0,112,302,44,19
2289.0,1108.0,112,302,44,19
2286.0,1108.0,112,300,44,19
2286.0,1108.0,112,300,44,19
2280.0,1108.0,112,300,44,19
2275.0,1108.0,112,300,44,19
2269.0,1108.0,111,300,44,19
2269.0,1108.0,111,300,44,19
2266.0,1108.0,111,300,44,19
2266.0,1108.0,111,299,44,19
2261.0,1108.0,111,299,43,19
2256.0,1108.0,111,299,44,19
2250.0,1108.0,111,299,44,19
2250.0,1108.0,110,299,44,19
2245.0,1108.0,110,297,44,19
2245.0,1108.0,110,297,44,19
2242.0,1108.0,110,297,44,19
2242.0,1108.0,111,297,44,19
2237.0,1108.0,112,297,44,19
2230.0,1108.0,112,297,44,19
2230.0,1108.0,112,296,44,19
2224.0,1107.0,112,295,44,19
2219.0,1107.0,112,296,44,19
2219.0,1107.0,112,295,44,19
2216.0,1107.0,112,295,44,19
2211.0,1106.0,112,295,44,19
2211.0,1106.0,111,295,44,19
2205.0,1106.0,111,295,44,19
2197.0,1105.0,111,295,43,19
2197.0,1105.0,111,295,43,19
2191.0,1105.0,111,295,43,19
2191.0,1105.0,111,295,43,19
2186.0,1105.0,111,295,43,19
2180.0,1105.0,110,294,43,19
2180.0,1105.0,110,294,43,19
2174.0,1105.0,110,294,43,19
2170.0,1104.0,110,294,43,19
2165.0,1104.0,110,293,43,19
2165.0,1104.0,110,310,43,19
2160.0,1104.0,110,309,43,19
2154.0,1103.0,110,309,42,18
2149.0,1103.0,109,308,42,18
2149.0,1103.0,109,308,43,19
2145.0,1102.0,109,308,43,18
2145.0,1102.0,109,307,42,19
2140.0,1102.0,108,307,43,19
2134.0,1101.0,109,307,43,19
2129.0,1101.0,108,307,42,19
2129.0,1101.0,108,307,42,19
2126.0,1101.0,108,307,42,19
2120.0,1100.0,108,306,42,19
2114.0,1099.0,108,306,42,19
2114.0,1099.0,108,305,41,19
2111.0,1099.0,108,305,41,19
2106.0,1099.0,108,305,42,19
2106.0,1099.0,108,305,42,19
2101.0,1098.0,108,305,41,19
2095.0,1097.0,107,304,41,19
2095.0,1097.0,107,304,41,19
2089.0,1097.0,107,304,42,19
2086.0,1097.0,107,304,43,19
2081.0,1097.0,108,304,44,19
2081.0,1097.0,113,304,43,19
2074.0,1096.0,120,304,43,19
2071.0,1096.0,121,303,43,19
2066.0,1095.0,121,303,44,19
2066.0,1095.0,121,303,43,19
2060.0,1094.0,120,302,43,18
2060.0,1094.0,120,302,43,19
2057.0,1094.0,120,302,43,19
2052.0,1093.0,120,302,43,19
2047.0,1092.0,120,302,43,19
2047.0,1092.0,120,301,43,18
2040.0,1092.0,120,301,43,19
2037.0,1091.0,120,301,43,18
2037.0,1091.0,120,300,42,18
2031.0,1090.0,120,300,43,19
2026.0,1090.0,120,300,43,18
2026.0,1090.0,119,300,42,19
2023.0,1090.0,119,300,43,19
2017.0,1089.0,119,300,43,19
2017.0,1089.0,119,299,43,18
2011.0,1088.0,119,300,42,19
2008.0,1088.0,119,299,42,19
2008.0,1088.0,118,310,43,18
2003.0,1087.0,118,309,41,18
1998.0,1086.0,118,309,42,19
1998.0,1086.0,118,308,42,18
1993.0,1086.0,118,308,41,18
1988.0,1085.0,118,308,41,18
1988.0,1085.0,118,308,42,18
1985.0,1084.0,116,307,41,18
1979.0,1083.0,117,307,41,18
1979.0,1083.0,116,307,41,18
1974.0,1082.0,116,307,41,18
1970.0,1082.0,116,307,41,18
1965.0,1082.0,116,307,41,18
1965.0,1082.0,116,306,41,18
1959.0,1081.0,115,306,41,17
1959.0,1081.0,116,305,41,18
1954.0,1080.0,115,305,41,18
1951.0,1079.0,115,305,41,17
1945.0,1078.0,115,305,41,18
1945.0,1078.0,115,304,41,18
1940.0,1077.0,115,304,41,17
1936.0,1076.0,115,304,41,17
1936.0,1076.0,115,304,41,17
1931.0,1075.0,115,304,41,17
1931.0,1075.0,115,304,41,18
1925.0,1074.0,118,304,41,18
1922.0,1074.0,120,303,41,17
1917.0,1074.0,119,303,41,17
1917.0,1074.0,119,303,41,17
1911.0,1073.0,119,302,41,17
1911.0,1073.0,119,302,40,17
1908.0,1072.0,119,302,40,17
1901.0,1071.0,119,302,40,18
1901.0,1071.0,118,302,41,17
1899.0,1070.0,118,301,40,17
1899.0,1070.0,118,301,40,17
1893.0,1069.0,118,301,41,17
1887.0,1068.0,118,300,40,17
1884.0,1068.0,117,300,40,17
1884.0,1068.0,117,300,40,17
1879.0,1067.0,117,300,40,17
1873.0,1066.0,116,300,41,17
1870.0,1065.0,117,300,40,17
1870.0,1065.0,116,299,39,17
1864.0,1064.0,116,300,40,17
1859.0,1063.0,116,299,39,17
1859.0,1063.0,116,312,39,17
1856.0,1062.0,115,311,39,17
1850.0,1061.0,116,310,39,17
1850.0,1061.0,115,310,39,17
1847.0,1061.0,115,310,39,17
1847.0,1061.0,115,310,39,17
1841.0,1060.0,115,308,39,17
1836.0,1059.0,115,309,39,17
1836.0,1059.0,115,308,39,17
1833.0,1058.0,115,308,39,17
1833.0,1058.0,115,308,39,17
1827.0,1057.0,115,307,39,17
1822.0,1056.0,115,307,39,17
1822.0,1056.0,114,307,39,17
1818.0,1055.0,114,307,39,17
1813.0,1054.0,114,307,39,17
1813.0,1054.0,113,307,39,16
1807.0,1052.0,113,307,39,17
1804.0,1052.0,113,306,39,17
1799.0,1051.0,113,306,39,17
1799.0,1051.0,113,305,39,17
1796.0,1050.0,113,305,39,16
1790.0,1049.0,113,305,39,16
1786.0,1048.0,113,305,39,16
1786.0,1048.0,113,305,40,17
1780.0,1047.0,112,304,40,16
1778.0,1046.0,112,304,40,16
1773.0,1046.0,112,304,40,17
1773.0,1046.0,112,304,39,16
1767.0,1045.0,112,304,39,16
1763.0,1044.0,112,303,39,17
1763.0,1044.0,112,303,39,17
1757.0,1043.0,112,303,39,16
1754.0,1042.0,112,303,39,16
1748.0,1040.0,112,302,39,17
1748.0,1040.0,111,302,39,16
1745.0,1040.0,111,302,39,16
1740.0,1038.0,111,302,39,16
1740.0,1038.0,111,302,39,16
1736.0,1038.0,111,302,39,16
1731.0,1037.0,110,301,39,16
1731.0,1037.0,111,301,39,16
1728.0,1036.0,110,300,39,16
1723.0,1035.0,110,300,39,16
1718.0,1034.0,110,300,39,16
1718.0,1034.0,110,300,39,15
1715.0,1033.0,110,312,39,16
1710.0,1032.0,110,312,39,16
1710.0,1032.0,110,312,39,16
1708.0,1032.0,109,312,39,16
1702.0,1030.0,109,311,39,16
1702.0,1030.0,109,311,39,15
1699.0,1029.0,108,311,39,16
1694.0,1028.0,108,310,39,16
1689.0,1027.0,108,310,39,16
1685.0,1026.0,108,310,39,16
1685.0,1026.0,108,310,39,16
1682.0,1026.0,108,309,39,16
1676.0,1024.0,108,308,39,16
1676.0,1024.0,108,308,39,16
1672.0,1023.0,108,308,39,16
1672.0,1023.0,108,308,39,16
1669.0,1023.0,108,308,39,16
1663.0,1021.0,108,308,39,16
1660.0,1020.0,107,307,39,16
1660.0,1020.0,107,307,39,16
1657.0,1020.0,107,307,39,16
1652.0,1019.0,107,307,39,16
1652.0,1019.0,107,307,39,15
1649.0,1018.0,107,306,39,16
1645.0,1017.0,117,307,41,16
1645.0,1017.0,127,306,41,15
1640.0,1016.0,283,305,41,15
1637.0,1015.0,287,305,41,15
1637.0,1015.0,286,305,41,16
1634.0,1015.0,286,305,41,15
1628.0,1013.0,285,304,41,15
1628.0,1013.0,285,304,41,15
1625.0,1012.0,285,304,41,15
1621.0,1011.0,284,304,41,16
1621.0,1011.0,284,304,41,15
1621.0,1011.0,284,304,41,15
1616.0,1010.0,284,303,40,15
1616.0,1010.0,284,303,40,15
1616.0,1010.0,284,303,40,15
1613.0,1009.0,283,303,39,15
1613.0,1009.0,283,303,41,15
1607.0,1009.0,283,302,39,15
1607.0,1009.0,283,302,40,15
1604.0,1008.0,283,302,39,15
1601.0,1007.0,282,302,39,15
1596.0,1005.0,282,302,39,15
1596.0,1005.0,281,312,39,15
1593.0,1005.0,281,312,40,15
1593.0,1005.0,281,312,39,15
1588.0,1003.0,281,312,40,15
1586.0,1003.0,280,311,39,15
1586.0,1003.0,280,311,39,15
1581.0,1002.0,280,311,39,15
1578.0,1001.0,280,310,39,15
1578.0,1001.0,280,310,39,15
1572.0,1000.0,280,310,39,15
1569.0,999.0,280,309,39,15
1569.0,999.0,280,309,39,15
1566.0,998.0,280,309,39,15
1562.0,997.0,279,308,39,15
1562.0,997.0,279,308,39,15
1558.0,997.0,279,308,39,15
1553.0,996.0,279,307,39,15
1550.0,995.0,279,307,39,15
1550.0,995.0,278,307,39,15
1547.0,994.0,278,307,39,15
1542.0,993.0,278,307,39,15
1539.0,993.0,278,307,39,15
1539.0,993.0,277,306,39,15
1535.0,992.0,277,307,39,15
1530.0,990.0,277,306,39,15
1530.0,990.0,276,306,39,15
1526.0,990.0,277,305,39,15
1524.0,989.0,276,305,39,15
1524.0,989.0,276,305,39,15
1518.0,987.0,276,304,39,15
1515.0,987.0,276,304,39,15
1515.0,987.0,275,304,39,15
1512.0,987.0,275,304,39,15
1509.0,986.0,275,304,39,15
1504.0,985.0,275,304,39,15
1504.0,985.0,275,303,39,15
1501.0,984.0,275,303,39,15
1496.0,983.0,275,303,39,15
1496.0,983.0,275,303,39,15
1492.0,982.0,274,303,39,15
1492.0,982.0,274,303,39,15
1489.0,982.0,273,302,39,15
1485.0,981.0,273,302,39,15
1485.0,981.0,273,302,39,15
1482.0,980.0,273,302,39,15
1478.0,979.0,273,301,39,15
1473.0,978.0,273,301,39,15
1473.0,978.0,272,301,39,15
1470.0,977.0,272,301,39,15
1467.0,977.0,271,300,38,15
1464.0,976.0,272,300,39,15
1464.0,976.0,271,300,38,16
1458.0,975.0,271,300,39,17
1455.0,974.0,271,300,39,17
1455.0,974.0,271,300,38,17
1452.0,973.0,271,300,38,17
1449.0,973.0,271,299,38,17
1449.0,973.0,271,299,38,17
1445.0,972.0,271,299,38,17
1443.0,972.0,271,299,38,17
1443.0,972.0,271,298,38,17
1438.0,971.0,270,297,38,17
1433.0,970.0,270,297,38,17
1433.0,970.0,270,297,38,17
1431.0,969.0,270,297,38,17
1427.0,968.0,269,297,38,17
1427.0,968.0,270,297,38,16
1424.0,968.0,269,296,38,17
1421.0,968.0,269,295,38,17
1421.0,968.0,269,295,39,17
1418.0,967.0,268,295,40,16
1415.0,966.0,269,295,41,17
1409.0,965.0,268,295,41,16
1409.0,965.0,268,295,41,16
1406.0,964.0,268,295,41,17
1406.0,964.0,268,295,41,16
1403.0,964.0,268,295,41,17
1400.0,963.0,268,295,41,16
1400.0,963.0,267,295,40,17
1397.0,963.0,267,294,40,16
1397.0,963.0,267,294,40,16
1394.0,962.0,267,294,41,16
1394.0,962.0,267,294,40,16
1391.0,961.0,267,294,40,16
1391.0,961.0,266,293,39,16
1388.0,961.0,266,293,40,16
1385.0,960.0,266,292,39,16
1385.0,960.0,265,293,40,16
1382.0,960.0,265,292,40,16
1377.0,959.0,265,292,39,16
1375.0,958.0,265,291,39,16
1372.0,958.0,265,291,39,16
1372.0,958.0,265,303,39,16
1367.0,957.0,264,302,39,15
1365.0,957.0,264,302,39,16
1365.0,957.0,263,302,39,15
1360.0,956.0,263,302,39,16
1357.0,955.0,263,302,39,16
1357.0,955.0,263,301,39,15
1356.0,954.0,263,300,39,15
1351.0,953.0,263,300,39,16
1351.0,953.0,263,300,39,16
1348.0,953.0,263,300,39,15
1345.0,953.0,263,300,39,15
1345.0,953.0,263,300,39,16
1343.0,952.0,263,300,39,15
1339.0,951.0,263,299,39,15
1336.0,951.0,263,299,39,15
1336.0,951.0,263,299,39,15
1333.0,950.0,262,299,39,15
1330.0,950.0,262,298,39,15
1330.0,950.0,262,297,39,15
1327.0,950.0,262,297,39,15
1324.0,949.0,262,297,39,15
1321.0,948.0,261,297,39,15
1319.0,948.0,261,297,39,15
1319.0,948.0,260,297,39,15
1316.0,947.0,261,296,39,15
1314.0,947.0,262,296,39,15
1314.0,947.0,268,295,39,15
1311.0,946.0,269,295,39,15
1308.0,946.0,269,295,39,15
1308.0,946.0,268,295,39,15
1304.0,946.0,268,295,39,15
1302.0,945.0,268,295,39,15
1300.0,945.0,268,295,39,15
1300.0,945.0,268,295,39,15
1297.0,944.0,268,295,39,15
1297.0,944.0,267,295,39,15
1293.0,943.0,267,294,39,15
1290.0,943.0,267,295,39,15
1290.0,943.0,267,294,39,15
1287.0,943.0,267,294,39,15
1286.0,943.0,266,294,39,15
1286.0,943.0,267,294,39,15
1283.0,943.0,266,293,39,15
1280.0,942.0,266,292,39,15
1277.0,942.0,265,292,39,15
1275.0,941.0,265,294,39,15
1275.0,941.0,265,294,39,15
1272.0,941.0,265,294,39,15
1270.0,940.0,265,293,38,15
1270.0,940.0,264,292,39,15
1268.0,940.0,264,292,39,15
1268.0,940.0,263,292,39,15
1264.0,940.0,263,292,38,15
1261.0,940.0,263,291,38,15
1258.0,940.0,263,291,38,15
1258.0,940.0,263,291,38,15
1256.0,940.0,263,291,39,15
1254.0,939.0,263,291,38,15
1254.0,939.0,263,291,38,15
1252.0,939.0,263,291,38,15
1250.0,939.0,263,291,38,15
1250.0,939.0,263,290,38,15
1247.0,938.0,263,290,38,15
1243.0,938.0,263,290,38,15
1243.0,938.0,263,289,38,15
1242.0,938.0,262,289,38,15
1239.0,938.0,262,289,38,15
1239.0,938.0,262,289,38,15
1236.0,937.0,262,289,38,15
1232.0,937.0,262,289,38,15
1232.0,937.0,261,288,38,15
1230.0,937.0,261,288,38,15
1227.0,937.0,261,288,38,15
1224.0,937.0,261,287,38,15
1224.0,937.0,260,287,38,15
1222.0,937.0,260,287,38,15
1220.0,937.0,260,287,38,15
1220.0,937.0,260,287,38,15
1218.0,937.0,260,287,38,14
1215.0,937.0,259,287,38,15
1215.0,937.0,259,287,38,15
1213.0,937.0,259,287,38,15
1211.0,937.0,259,286,38,15
1211.0,937.0,259,286,37,15
1209.0,937.0,259,286,37,14
1207.0,937.0,259,286,37,15
1207.0,937.0,259,286,37,14
1205.0,937.0,258,285,37,14
1203.0,937.0,259,285,37,14
1201.0,937.0,258,285,38,15
1201.0,937.0,258,285,37,14
1199.0,937.0,257,287,36,14
1197.0,937.0,257,286,37,14
1194.0,937.0,257,286,37,14
1194.0,937.0,257,286,37,14
1193.0,937.0,257,286,37,15
1191.0,937.0,257,286,36,15
1191.0,937.0,257,285,36,14
1189.0,937.0,257,285,37,14
1187.0,937.0,256,285,36,14
1187.0,937.0,257,285,36,14
1185.0,937.0,127,284,36,14
1183.0,937.0,127,284,36,14
1183.0,937.0,127,284,37,14
1181.0,937.0,127,284,36,14
1179.0,937.0,127,284,36,14
1179.0,937.0,127,284,36,14
1177.0,937.0,127,283,36,14
1177.0,937.0,127,284,36,14
1177.0,937.0,127,283,36,14
1175.0,937.0,127,283,36,14
1175.0,937.0,127,283,36,14
1172.0,937.0,127,282,36,14
1169.0,937.0,126,282,36,14
1167.0,937.0,126,282,35,14
1167.0,937.0,126,282,36,14
1166.0,937.0,256,281,36,14
1164.0,937.0,265,281,35,14
1163.0,937.0,281,281,36,14
1163.0,937.0,294,281,36,14
1161.0,937.0,292,281,36,14
1159.0,938.0,292,281,35,14
1159.0,938.0,292,280,35,14
1158.0,938.0,291,280,36,14
1156.0,939.0,291,280,35,14
1155.0,939.0,291,280,35,14
1155.0,939.0,291,280,35,14
1153.0,939.0,291,280,35,14
1151.0,939.0,291,280,35,14
1151.0,939.0,290,280,35,14
1150.0,939.0,290,280,35,13
1149.0,940.0,289,280,35,14
1149.0,940.0,289,279,35,14
1147.0,940.0,289,279,35,14
1145.0,941.0,289,279,35,13
1145.0,941.0,289,278,35,13
1143.0,941.0,288,278,35,14
1143.0,941.0,288,278,35,14
1142.0,941.0,288,278,35,15
1140.0,942.0,287,278,35,18
1140.0,942.0,287,278,35,19
1139.0,942.0,287,278,35,20
1137.0,943.0,287,277,35,21
1136.0,943.0,287,277,35,21
1134.0,943.0,287,276,35,21
1134.0,943.0,287,276,35,20
1132.0,944.0,287,276,35,20
1132.0,944.0,287,276,35,20
1132.0,944.0,286,276,35,21
1131.0,945.0,286,275,35,21
1130.0,945.0,286,275,35,20
1130.0,945.0,286,275,34,20
1128.0,945.0,285,275,35,21
1128.0,945.0,285,275,34,20
1128.0,946.0,285,275,35,20
1128.0,946.0,284,275,34,20
1127.0,947.0,284,275,35,20
1127.0,947.0,284,274,34,20
1125.0,947.0,284,274,34,20
1125.0,947.0,284,274,35,20
1125.0,947.0,284,274,35,20
1123.0,947.0,284,273,34,20
1122.0,948.0,284,274,35,20
1122.0,948.0,283,273,35,20
1121.0,948.0,283,273,35,20
1121.0,948.0,283,273,35,20
1120.0,949.0,283,273,35,20
1120.0,949.0,283,273,34,19
1119.0,949.0,281,272,34,20
1117.0,950.0,282,273,34,20
1117.0,950.0,281,272,34,20
1115.0,951.0,281,272,34,20
1114.0,952.0,281,271,34,19
1114.0,952.0,281,271,34,20
1114.0,952.0,281,271,33,20
1111.0,953.0,281,271,34,20
1110.0,954.0,280,271,33,20
1110.0,954.0,280,271,34,19
1110.0,954.0,280,271,34,19
1110.0,954.0,280,271,34,19
1109.0,955.0,280,271,33,19
1106.0,956.0,280,271,34,19
1106.0,957.0,280,270,33,19
1106.0,957.0,280,271,34,19
1104.0,958.0,279,271,33,19
1103.0,958.0,279,271,33,20
1102.0,959.0,279,271,33,19
1102.0,959.0,279,271,33,19
1100.0,960.0,279,271,33,19
1099.0,961.0,278,270,33,19
1098.0,962.0,278,270,33,19
1098.0,962.0,278,270,33,19
1097.0,962.0,278,270,33,19
1096.0,964.0,278,270,33,19
1095.0,964.0,277,270,33,19
1095.0,964.0,277,269,33,19
1094.0,965.0,276,269,33,19
1094.0,965.0,276,269,33,19
1092.0,966.0,276,269,33,19
1092.0,967.0,276,268,33,19
1091.0,968.0,275,268,33,19
1091.0,968.0,275,268,33,19
1089.0,969.0,275,268,33,19
1089.0,970.0,275,268,33,19
1089.0,970.0,275,268,32,19
1087.0,971.0,275,268,33,19
1087.0,971.0,275,268,32,19
1086.0,972.0,275,268,32,19
1086.0,972.0,275,268,35,19
1085.0,973.0,274,267,35,19
1085.0,973.0,274,267,35,19
1084.0,974.0,273,267,35,19
1082.0,976.0,274,267,35,19
1082.0,976.0,273,267,35,19
1082.0,976.0,273,266,35,19
1081.0,978.0,273,266,35,19
1081.0,978.0,273,266,35,19
1081.0,978.0,273,265,35,19
1079.0,980.0,272,265,35,19
1079.0,980.0,273,265,35,19
1079.0,981.0,272,265,35,19
1078.0,981.0,271,265,35,19
1078.0,981.0,271,265,35,19
1077.0,983.0,271,264,35,19
1076.0,984.0,271,264,35,19
1076.0,984.0,271,263,35,19
1075.0,985.0,271,264,35,19
1074.0,986.0,271,264,35,19
1074.0,986.0,271,264,35,19
1073.0,988.0,271,265,35,18
1072.0,990.0,270,265,35,18
1071.0,990.0,270,264,34,19
1071.0,990.0,270,264,35,19
1071.0,992.0,270,264,35,19
1070.0,993.0,270,263,34,18
1070.0,993.0,270,263,35,19
1069.0,994.0,270,263,35,18
1069.0,996.0,270,263,34,18
1067.0,997.0,269,263,34,18
1067.0,997.0,269,263,35,18
1067.0,998.0,269,263,34,18
1067.0,999.0,269,263,34,18
1067.0,999.0,268,263,35,18
1065.0,1001.0,268,263,34,19
1065.0,1002.0,268,263,34,18
1065.0,1002.0,268,263,34,19
1065.0,1003.0,268,263,33,18
1065.0,1003.0,268,262,34,18
1063.0,1005.0,268,263,34,18
1063.0,1007.0,268,262,34,18
1063.0,1007.0,267,262,34,18
1062.0,1008.0,267,262,34,18
1062.0,1009.0,267,262,33,18
1062.0,1009.0,267,262,33,18
1061.0,1011.0,267,262,34,18
1061.0,1012.0,267,261,34,17
1060.0,1013.0,266,260,34,18
1060.0,1013.0,266,261,34,17
1059.0,1015.0,266,260,34,18
1059.0,1017.0,265,260,34,18
1059.0,1017.0,265,260,34,17
1059.0,1018.0,265,260,33,18
1059.0,1018.0,265,260,34,18
1058.0,1019.0,265,260,34,17
1058.0,1021.0,265,259,34,18
1058.0,1021.0,265,259,34,18
1057.0,1023.0,264,259,33,17
1057.0,1024.0,264,259,33,18
1057.0,1024.0,264,259,33,17
1056.0,1027.0,264,259,34,17
1056.0,1027.0,263,259,33,17
1056.0,1027.0,263,259,33,17
1055.0,1029.0,263,259,33,17
1055.0,1031.0,263,259,33,17
1055.0,1031.0,263,258,33,17
1055.0,1033.0,263,258,33,17
1055.0,1035.0,263,258,33,17
1055.0,1035.0,263,257,33,17
1054.0,1035.0,263,258,33,17
1054.0,1038.0,263,257,33,17
1053.0,1040.0,263,257,33,17
1053.0,1040.0,262,257,33,17
1053.0,1041.0,262,257,33,17
1053.0,1042.0,262,257,33,17
1053.0,1042.0,262,257,33,17
1053.0,1044.0,262,256,33,17
1053.0,1047.0,262,256,33,17
1053.0,1047.0,262,257,33,17
1053.0,1049.0,261,256,33,17
1053.0,1049.0,262,127,33,17
1052.0,1050.0,260,127,32,17
1052.0,1053.0,260,127,32,17
1052.0,1053.0,260,127,32,17
1052.0,1053.0,260,127,33,17
1052.0,1056.0,260,127,32,17
1052.0,1056.0,260,127,32,17
1052.0,1058.0,259,127,32,17
1051.0,1060.0,259,127,33,17
1051.0,1060.0,259,127,32,17
1051.0,1061.0,259,127,32,16
1051.0,1064.0,259,127,32,17
1051.0,1064.0,259,127,32,17
1051.0,1065.0,259,127,31,17
1051.0,1065.0,259,126,32,17
1051.0,1067.0,259,126,31,16
1051.0,1069.0,259,126,32,17
1051.0,1069.0,259,126,32,16
1051.0,1072.0,259,126,31,17
1051.0,1072.0,259,126,31,17
1051.0,1074.0,259,126,31,17
1051.0,1075.0,259,126,31,16
1051.0,1075.0,258,125,31,16
1051.0,1078.0,258,125,31,17
1051.0,1081.0,257,124,31,17
1051.0,1081.0,257,124,31,17
1051.0,1081.0,257,124,31,16
1051.0,1083.0,257,124,31,16
1051.0,1085.0,257,124,31,16
1051.0,1085.0,257,124,31,16
1051.0,1088.0,257,124,31,16
1051.0,1090.0,257,124,31,16
1051.0,1090.0,256,125,31,16
1051.0,1092.0,256,125,31,16
1051.0,1092.0,127,125,31,16
1051.0,1095.0,127,125,31,16
1051.0,1098.0,127,125,31,16
1051.0,1099.0,127,124,31,16
1051.0,1099.0,127,124,31,16
1052.0,1101.0,127,124,31,16
1052.0,1103.0,127,124,31,16
1052.0,1103.0,127,124,31,17
1053.0,1105.0,127,124,31,16
1053.0,1108.0,127,124,31,16
1053.0,1108.0,127,124,31,16
1053.0,1111.0,127,123,31,16
1053.0,1111.0,127,123,31,16
1053.0,1113.0,127,123,31,16
1054.0,1115.0,126,123,31,16
1054.0,1118.0,126,123,31,15
1054.0,1118.0,126,123,31,16
1055.0,1120.0,126,122,31,15
1055.0,1122.0,126,123,31,16
1055.0,1125.0,126,123,31,15
1056.0,1127.0,125,122,31,15
1056.0,1127.0,125,121,31,15
1057.0,1130.0,125,121,31,15
1058.0,1133.0,125,121,31,15
1058.0,1135.0,125,121,31,15
1058.0,1135.0,124,121,31,15
1058.0,1137.0,125,121,31,15
1059.0,1139.0,126,121,31,15
1059.0,1139.0,125,121,31,15
1060.0,1142.0,125,121,31,15
1061.0,1145.0,126,120,31,15
1061.0,1145.0,125,120,31,15
1061.0,1147.0,125,120,31,15
1062.0,1149.0,124,120,31,15
1062.0,1149.0,125,120,31,15
1063.0,1153.0,125,120,31,15
1064.0,1155.0,124,120,31,15
1064.0,1155.0,124,120,31,15
1064.0,1158.0,124,120,31,15
1066.0,1161.0,124,120,31,15
1066.0,1161.0,124,120,31,15
1067.0,1164.0,124,119,31,15
1068.0,1165.0,123,119,30,15
1068.0,1165.0,124,119,30,15
1068.0,1168.0,123,121,30,15
1069.0,1170.0,123,121,30,15
1069.0,1170.0,123,121,30,15
1071.0,1173.0,123,121,30,15
1072.0,1176.0,123,120,30,15
1072.0,1176.0,122,120,30,15
1073.0,1179.0,123,120,30,15
1074.0,1181.0,122,120,30,15
1074.0,1181.0,121,120,30,15
1075.0,1184.0,121,120,30,15
1076.0,1186.0,121,120,30,15
1076.0,1186.0,121,120,30,15
1078.0,1190.0,121,120,30,15
1079.0,1192.0,121,120,30,15
1079.0,1192.0,121,120,30,15
1080.0,1195.0,121,120,30,15
1081.0,1198.0,121,119,30,15
1081.0,1198.0,120,119,30,15
1083.0,1200.0,120,119,30,15
1084.0,1202.0,120,119,30,15
1084.0,1202.0,120,119,30,15
1086.0,1205.0,120,119,30,15
1087.0,1208.0,120,118,30,15
1088.0,1211.0,120,118,30,15
1090.0,1213.0,120,118,30,15
1090.0,1213.0,120,118,30,15
1091.0,1215.0,120,118,30,15
1093.0,1219.0,120,118,30,15
1093.0,1219.0,120,118,30,15
1095.0,1222.0,120,117,30,15
1096.0,1224.0,119,117,30,15
1096.0,1224.0,119,117,30,15
1098.0,1225.0,119,117,30,15
1100.0,1230.0,119,116,30,15
1100.0,1230.0,119,117,30,15
1102.0,1233.0,118,116,29,15
1102.0,1233.0,118,116,30,15
1103.0,1235.0,118,116,30,15
1105.0,1237.0,118,116,30,15
1105.0,1237.0,118,116,30,15
1107.0,1240.0,118,115,29,15
1110.0,1244.0,118,115,30,15
1110.0,1244.0,117,115,29,15
1111.0,1246.0,117,115,29,15
1111.0,1246.0,116,115,29,15
1114.0,1248.0,117,115,29,14
1115.0,1250.0,116,115,29,15
1118.0,1254.0,116,115,29,15
1118.0,1254.0,116,115,29,14
1120.0,1256.0,116,115,29,15
1121.0,1258.0,116,115,29,15
1121.0,1258.0,116,115,29,15
1124.0,1261.0,115,114,29,15
1125.0,1264.0,115,114,28,14
1125.0,1264.0,115,114,29,14
1128.0,1266.0,115,114,29,15
1130.0,1268.0,115,114,29,15
1132.0,1271.0,115,114,29,15
1132.0,1271.0,115,113,29,14
1135.0,1273.0,115,113,29,14
1137.0,1276.0,115,113,29,15
1139.0,1278.0,115,113,28,14
1139.0,1278.0,114,113,28,14
1143.0,1281.0,114,113,28,14
1145.0,1285.0,115,113,28,14
1145.0,1285.0,114,113,29,14
1148.0,1286.0,113,113,28,14
1150.0,1289.0,114,113,28,14
1150.0,1289.0,113,112,28,14
1153.0,1291.0,113,113,28,15
1157.0,1295.0,113,112,28,14
1157.0,1295.0,113,112,28,14
1159.0,1297.0,113,112,28,14
1162.0,1299.0,113,112,30,14
1162.0,1299.0,113,112,30,14
1165.0,1302.0,113,112,30,14
1169.0,1305.0,113,112,29,14
1169.0,1305.0,113,112,30,14
1172.0,1307.0,113,112,29,14
1173.0,1309.0,113,111,29,14
1173.0,1309.0,113,111,30,14
1178.0,1312.0,112,111,30,14
1180.0,1314.0,112,111,30,14
1180.0,1314.0,112,111,29,14
1184.0,1316.0,112,111,29,14
1187.0,1318.0,112,110,29,14
1187.0,1318.0,112,110,30,14
1191.0,1321.0,112,111,29,14
1191.0,1321.0,112,110,30,14
1194.0,1324.0,112,110,29,14
1198.0,1325.0,112,110,29,14
1201.0,1328.0,111,110,29,14
1201.0,1328.0,111,110,29,14
1204.0,1330.0,111,110,29,14
1209.0,1333.0,111,109,29,14
1213.0,1336.0,111,109,29,14
1213.0,1336.0,111,109,29,14
1216.0,1338.0,111,109,29,14
1221.0,1340.0,110,109,28,14
1221.0,1340.0,110,108,29,14
1224.0,1343.0,110,109,28,14
1228.0,1345.0,110,109,29,13
1228.0,1345.0,110,108,29,14
1234.0,1348.0,110,108,29,14
1237.0,1350.0,110,108,29,14
1237.0,1350.0,110,108,28,14
1240.0,1352.0,110,108,28,14
1246.0,1355.0,109,108,28,13
1246.0,1355.0,109,108,28,13
1250.0,1356.0,109,108,28,14
1255.0,1359.0,108,108,28,13
1255.0,1359.0,108,108,28,14
1259.0,1361.0,108,108,28,13
1263.0,1364.0,108,107,28,14
1263.0,1364.0,108,107,28,14
1269.0,1366.0,108,107,28,14
1272.0,1367.0,108,107,28,13
1272.0,1367.0,108,107,28,13
1278.0,1370.0,108,107,28,13
1283.0,1372.0,108,107,28,13
1286.0,1374.0,119,107,28,13
1286.0,1374.0,124,107,28,13
1292.0,1377.0,256,105,28,14
1297.0,1379.0,127,105,28,13
1303.0,1382.0,127,106,28,14
1321.0,1389.0,127,105,28,13
1321.0,1389.0,127,105,28,13
1321.0,1389.0,127,105,28,13
1326.0,1390.0,127,105,28,13
1332.0,1392.0,127,105,28,13
1332.0,1392.0,127,105,28,13
1338.0,1395.0,126,105,28,13
1343.0,1397.0,126,105,28,13
1343.0,1397.0,126,105,28,13
1348.0,1399.0,126,104,28,13
1354.0,1401.0,126,104,28,13
1354.0,1401.0,126,104,28,13
1360.0,1403.0,126,104,28,13
1364.0,1405.0,126,103,28,13
1364.0,1405.0,125,103,28,13
1370.0,1407.0,125,103,28,13
1376.0,1409.0,125,103,28,13
1376.0,1409.0,125,103,28,13
1381.0,1410.0,124,103,28,13
1387.0,1412.0,124,103,28,13
1387.0,1412.0,124,103,28,13
1392.0,1414.0,124,103,28,12
1397.0,1415.0,124,103,28,13
1397.0,1415.0,124,103,28,12
1404.0,1417.0,124,103,28,12
1410.0,1419.0,123,103,28,13
1410.0,1419.0,123,103,28,13
1416.0,1421.0,123,103,27,12
1422.0,1423.0,123,103,28,12
1422.0,1423.0,123,103,28,12
1427.0,1425.0,123,102,28,13
1427.0,1425.0,122,102,27,13
1433.0,1426.0,122,102,27,13
1440.0,1428.0,122,102,27,12
1440.0,1428.0,121,102,28,13
1446.0,1430.0,121,102,27,12
1453.0,1432.0,121,102,27,12
1453.0,1432.0,121,102,28,12
1457.0,1433.0,121,102,27,12
1463.0,1434.0,121,102,27,13
1468.0,1435.0,121,101,28,12
1468.0,1435.0,120,101,28,12
1474.0,1437.0,120,101,28,12
1480.0,1439.0,120,101,28,12
1480.0,1439.0,120,100,28,12
1490.0,1441.0,120,100,28,12
1495.0,1442.0,120,100,28,12
1495.0,1442.0,120,100,28,12
1501.0,1443.0,120,100,28,12
1507.0,1445.0,120,100,28,12
1507.0,1445.0,120,100,28,12
1514.0,1447.0,119,99,28,12
1519.0,1448.0,119,99,28,12
1519.0,1448.0,119,99,28,12
1525.0,1449.0,119,99,28,12
1531.0,1451.0,119,99,28,12
1537.0,1452.0,119,99,28,12
1537.0,1452.0,119,99,28,12
1549.0,1455.0,118,99,28,12
1549.0,1455.0,118,103,27,12
1549.0,1455.0,118,103,27,12
1557.0,1456.0,118,103,27,12
1563.0,1457.0,118,103,28,12
1568.0,1459.0,118,103,27,12
1575.0,1460.0,118,103,27,12
1575.0,1460.0,117,102,27,12
1581.0,1461.0,118,103,28,12
1581.0,1461.0,117,102,27,12
1588.0,1462.0,116,102,28,12
1593.0,1462.0,117,102,28,12
1599.0,1463.0,116,102,27,12
1599.0,1463.0,116,102,28,12
1607.0,1465.0,116,102,28,12
1613.0,1466.0,116,101,27,12
1613.0,1466.0,115,102,27,12
1618.0,1467.0,115,101,27,12
1625.0,1468.0,115,101,27,12
1625.0,1468.0,115,101,27,12
1632.0,1469.0,115,100,27,12
1638.0,1470.0,115,100,27,12
1643.0,1471.0,115,100,27,12
1643.0,1471.0,115,100,27,12
1650.0,1472.0,115,100,27,12
1650.0,1472.0,115,100,27,12
1656.0,1473.0,114,99,27,12
1661.0,1474.0,115,100,27,12
1667.0,1475.0,114,99,27,12
1667.0,1475.0,114,99,27,12
1673.0,1476.0,114,99,27,12
1673.0,1476.0,114,99,27,12
1681.0,1477.0,113,99,27,12
1681.0,1477.0,114,99,27,12
1686.0,1478.0,113,99,27,12
1686.0,1478.0,113,99,27,12
1695.0,1479.0,113,99,27,12
1700.0,1480.0,113,99,27,12
1700.0,1480.0,113,99,27,12
1705.0,1481.0,113,99,27,12
1710.0,1482.0,113,98,27,12
1717.0,1483.0,112,99,27,12
1717.0,1483.0,112,98,27,12
1725.0,1484.0,112,98,27,12
1725.0,1484.0,112,98,27,11
1732.0,1485.0,112,97,27,11
1738.0,1485.0,112,98,26,12
1738.0,1485.0,112,98,27,12
1743.0,1486.0,112,98,27,11
1749.0,1486.0,112,98,27,11
1749.0,1486.0,112,98,26,12
1754.0,1486.0,111,98,27,12
1760.0,1487.0,111,98,26,11
1760.0,1487.0,111,97,26,11
1767.0,1488.0,111,97,27,11
1772.0,1488.0,111,97,26,11
1772.0,1488.0,111,97,26,12
1778.0,1489.0,110,97,26,12
1786.0,1490.0,110,97,25,11
1793.0,1491.0,110,97,26,11
1793.0,1491.0,110,96,26,12
1798.0,1491.0,110,96,26,11
1798.0,1491.0,110,96,26,12
1804.0,1492.0,110,96,26,12
1809.0,1492.0,110,96,26,12
1809.0,1492.0,109,96,26,12
1815.0,1493.0,109,96,26,12
1820.0,1494.0,109,96,26,11
1820.0,1494.0,109,96,26,11
1827.0,1494.0,109,96,25,11
1833.0,1495.0,108,96,25,11
1833.0,1495.0,108,96,26,11
1841.0,1496.0,108,96,25,11
1846.0,1496.0,108,95,25,11
1846.0,1496.0,108,95,26,11
1852.0,1497.0,108,95,26,11
1858.0,1498.0,108,95,25,11
1864.0,1498.0,110,95,25,11
1864.0,1498.0,110,95,26,11
1870.0,1499.0,110,95,25,11
1877.0,1499.0,110,95,26,11
1877.0,1499.0,109,94,26,11
1882.0,1500.0,109,95,25,11
1888.0,1500.0,110,94,26,11
1888.0,1500.0,109,94,26,11
1893.0,1501.0,109,94,25,11
1899.0,1502.0,109,94,25,11
1899.0,1502.0,108,94,25,11
1904.0,1502.0,109,94,25,11
1910.0,1503.0,108,94,25,11
1910.0,1503.0,108,94,25,11
1917.0,1503.0,108,93,25,11
1922.0,1504.0,108,93,25,11
1922.0,1504.0,108,96,25,11
1928.0,1504.0,108,96,25,11
1933.0,1505.0,108,96,25,11
1933.0,1505.0,108,96,25,11
1939.0,1505.0,108,96,25,11
1946.0,1505.0,108,96,25,11
1946.0,1505.0,108,96,25,11
1954.0,1507.0,107,96,25,11
1957.0,1507.0,107,96,25,11
1957.0,1507.0,107,95,25,11
1962.0,1507.0,107,95,25,11
1970.0,1507.0,107,96,25,11
1970.0,1507.0,107,95,25,10
1977.0,1508.0,106,95,25,10
1982.0,1508.0,106,95,25,11
1982.0,1508.0,106,95,25,11
1988.0,1509.0,105,95,25,11
1993.0,1509.0,106,95,24,11
1999.0,1510.0,105,95,24,11
1999.0,1510.0,105,94,25,11
2004.0,1510.0,105,94,25,11
2011.0,1511.0,105,94,24,11
2011.0,1511.0,105,94,24,11
2017.0,1512.0,105,94,24,10
2022.0,1512.0,105,94,24,11
2022.0,1512.0,105,94,24,11
2028.0,1513.0,104,94,24,11
2032.0,1513.0,104,94,26,10
2032.0,1513.0,108,93,27,11
2039.0,1514.0,113,94,27,11
2044.0,1514.0,123,93,27,10
2044.0,1514.0,125,93,27,10
2050.0,1515.0,125,92,27,11
2055.0,1515.0,125,93,27,10
2062.0,1516.0,124,92,27,11
2062.0,1516.0,124,92,27,10
2068.0,1516.0,124,92,27,10
2073.0,1517.0,124,92,27,10
2073.0,1517.0,124,92,27,11
2076.0,1517.0,124,92,27,10
2081.0,1517.0,124,92,27,10
2081.0,1517.0,123,92,26,10
2087.0,1518.0,123,92,26,10
2094.0,1518.0,123,92,27,10
2094.0,1518.0,123,92,27,10
2099.0,1519.0,123,92,27,10
2105.0,1519.0,122,92,26,10
2105.0,1519.0,123,93,27,11
2110.0,1520.0,123,92,27,10
2117.0,1520.0,122,92,27,9
2117.0,1520.0,121,92,26,10
2121.0,1521.0,121,92,26,10
2127.0,1521.0,121,92,27,10
2127.0,1521.0,121,92,26,10
2132.0,1522.0,121,92,26,9
2138.0,1522.0,121,92,26,9
2138.0,1522.0,120,92,26,10
2141.0,1522.0,120,92,25,10
2148.0,1522.0,120,92,25,10
2148.0,1522.0,120,92,25,9
2153.0,1523.0,120,92,26,10
2159.0,1523.0,120,92,26,10
2159.0,1523.0,120,91,26,10
2164.0,1524.0,120,91,25,10
2170.0,1524.0,120,91,25,10
2175.0,1525.0,120,91,25,9
2175.0,1525.0,120,91,26,10
2181.0,1525.0,119,91,25,9
2186.0,1526.0,119,91,25,9
2186.0,1526.0,119,90,25,10
2189.0,1526.0,119,91,25,10
2189.0,1526.0,119,90,25,10
2194.0,1526.0,119,90,25,9
2201.0,1527.0,118,90,26,9
2207.0,1527.0,118,89,28,10
2207.0,1527.0,118,89,29,9
2211.0,1528.0,118,90,29,9
2216.0,1528.0,118,89,29,9
2222.0,1529.0,118,89,28,9
2222.0,1529.0,118,89,28,9
2225.0,1529.0,117,89,28,9
2231.0,1530.0,117,89,28,9
2231.0,1530.0,117,89,28,9
2237.0,1530.0,116,88,28,9
2237.0,1530.0,116,89,28,9
2241.0,1531.0,116,88,28,9
2246.0,1531.0,116,88,28,9
2250.0,1531.0,116,88,28,9
2250.0,1531.0,115,88,28,9
2255.0,1531.0,116,88,28,9
2262.0,1532.0,115,88,28,9
2267.0,1532.0,115,88,28,9
2272.0,1533.0,115,88,28,9
2272.0,1533.0,115,88,28,9
2275.0,1533.0,115,88,28,9
2280.0,1534.0,115,88,28,9
2280.0,1534.0,115,88,28,9
2286.0,1534.0,115,88,28,9
2291.0,1535.0,115,88,28,9
2291.0,1535.0,114,88,28,9
2294.0,1535.0,114,88,28,9
2299.0,1536.0,114,88,28,9
2299.0,1536.0,114,88,28,9
2306.0,1536.0,114,88,28,9
2310.0,1537.0,114,87,28,9
2310.0,1537.0,113,88,28,9
2313.0,1537.0,113,87,28,9
2318.0,1538.0,113,87,28,9
2318.0,1538.0,113,87,27,9
2323.0,1538.0,112,87,27,9
2326.0,1538.0,112,87,27,9
2326.0,1538.0,113,87,28,9
2332.0,1539.0,113,86,28,9
2336.0,1539.0,112,86,27,9
2336.0,1539.0,112,86,27,9
2339.0,1540.0,112,86,28,9
2345.0,1541.0,112,86,27,9
2345.0,1541.0,112,86,28,9
2349.0,1541.0,112,86,27,9
2352.0,1542.0,112,86,27,9
2352.0,1542.0,111,86,28,9
2359.0,1543.0,112,86,28,9
2362.0,1544.0,115,86,27,9
2362.0,1544.0,115,85,28,9
2366.0,1544.0,115,86,27,9
2370.0,1544.0,115,85,28,9
2370.0,1544.0,115,86,27,9
2373.0,1545.0,115,85,28,9
2378.0,1546.0,115,85,27,9
2378.0,1546.0,115,84,27,9
2381.0,1546.0,114,84,27,9
2386.0,1547.0,114,84,27,9
2389.0,1548.0,114,84,27,9
2389.0,1548.0,114,84,27,9
2395.0,1549.0,114,84,28,9
2395.0,1549.0,113,84,27,9
2397.0,1549.0,113,84,27,9
2402.0,1549.0,113,83,27,9
2404.0,1550.0,113,84,27,8
2404.0,1550.0,113,83,27,9
2411.0,1552.0,113,83,27,9
2411.0,1552.0,113,83,27,8
2411.0,1552.0,113,83,27,9
2416.0,1553.0,112,83,27,8
2420.0,1553.0,112,83,27,8
2420.0,1553.0,112,83,27,9
2423.0,1553.0,112,83,27,8
2426.0,1554.0,112,83,27,9
2432.0,1556.0,112,83,27,9
2432.0,1556.0,112,83,27,8
2432.0,1556.0,111,83,26,9
2435.0,1557.0,111,83,27,8
2438.0,1557.0,111,83,26,9
2438.0,1557.0,111,83,27,8
2441.0,1558.0,111,82,26,8
2444.0,1559.0,111,82,26,8
2444.0,1559.0,111,83,27,8
2447.0,1559.0,111,82,27,9
2451.0,1560.0,110,82,26,8
2451.0,1560.0,110,82,27,8
2454.0,1560.0,110,82,27,8
2456.0,1561.0,110,82,25,8
2456.0,1561.0,110,82,26,8
2460.0,1563.0,110,82,26,8
2462.0,1563.0,110,81,25,8
2462.0,1563.0,110,81,26,8
2464.0,1564.0,109,81,27,8
2467.0,1564.0,109,81,26,8
2467.0,1564.0,109,81,26,8
2470.0,1565.0,109,81,26,8
2473.0,1566.0,108,81,27,8
2476.0,1567.0,108,81,26,8
2476.0,1567.0,108,80,26,7
2477.0,1567.0,108,81,26,7
2480.0,1568.0,108,80,27,8
2480.0,1568.0,108,80,27,8
2482.0,1569.0,108,80,26,7
2560.0,1616.0,108,80,26,7
2561.0,1617.0,108,80,26,8
2561.0,1617.0,108,80,26,8
2561.0,1617.0,108,79,26,8
2562.0,1619.0,108,79,25,7
2562.0,1619.0,107,79,26,8
2562.0,1619.0,108,79,25,7
2563.0,1620.0,107,79,25,7
2563.0,1620.0,107,79,26,8
2563.0,1621.0,107,79,26,8
2564.0,1623.0,106,79,25,7
2564.0,1623.0,107,79,25,7
2564.0,1623.0,107,79,25,7
2564.0,1624.0,105,79,25,7
2564.0,1624.0,106,79,25,7
2564.0,1625.0,105,79,25,7
2565.0,1626.0,105,79,25,7
2566.0,1627.0,105,79,25,7
2566.0,1627.0,105,79,25,7
2566.0,1628.0,105,79,25,7
2566.0,1628.0,105,79,25,8
2566.0,1628.0,105,79,25,7
2566.0,1630.0,105,79,25,7
2566.0,1630.0,104,78,25,7
2567.0,1631.0,104,79,25,7
2567.0,1631.0,104,78,25,7
2568.0,1632.0,104,78,25,7
2568.0,1632.0,103,78,25,7
2568.0,1633.0,104,78,25,7
2568.0,1634.0,103,78,25,7
2568.0,1634.0,103,78,25,7
2568.0,1635.0,103,78,25,7
2568.0,1636.0,103,78,25,7
2568.0,1636.0,103,78,25,7
2568.0,1637.0,103,78,25,7
2568.0,1638.0,103,77,25,7
2568.0,1638.0,103,77,25,7
2569.0,1639.0,103,78,25,7
2569.0,1639.0,104,77,25,7
2569.0,1640.0,104,77,25,7
2569.0,1640.0,105,77,25,7
2569.0,1641.0,105,77,25,7
2569.0,1642.0,104,77,25,7
2569.0,1642.0,104,77,25,7
2569.0,1643.0,103,77,25,7
2569.0,1644.0,103,77,24,7
2569.0,1644.0,103,76,25,7
2569.0,1645.0,103,76,25,7
2569.0,1645.0,103,76,24,7
2569.0,1645.0,103,76,24,7
2569.0,1646.0,103,76,24,7
2569.0,1646.0,103,76,24,7
2569.0,1646.0,103,76,24,7
2569.0,1648.0,103,76,25,7
2569.0,1648.0,103,76,24,7
2569.0,1650.0,103,76,24,7
2569.0,1650.0,103,76,25,7
2569.0,1650.0,103,76,24,7
2569.0,1651.0,103,76,24,7
2569.0,1652.0,103,75,24,7
2569.0,1652.0,103,76,24,7
2569.0,1653.0,103,75,24,7
2569.0,1653.0,102,75,24,7
2569.0,1654.0,102,75,24,7
2569.0,1654.0,102,75,24,7
2569.0,1656.0,102,75,24,7
2569.0,1657.0,102,75,24,7
2569.0,1657.0,102,75,24,7
2569.0,1657.0,102,75,24,7
2569.0,1658.0,101,75,24,7
2569.0,1658.0,102,75,24,7
2569.0,1659.0,101,75,24,7
2569.0,1661.0,101,75,24,7
2569.0,1661.0,100,74,24,7
2569.0,1662.0,100,74,24,7
2568.0,1662.0,100,74,24,7
2568.0,1663.0,100,74,24,7
2568.0,1664.0,100,73,24,7
2568.0,1664.0,100,73,24,7
2567.0,1666.0,100,73,24,7
2567.0,1666.0,99,73,24,7
2567.0,1667.0,100,73,24,7
2566.0,1668.0,99,73,24,7
2566.0,1668.0,107,73,24,7
2566.0,1669.0,259,73,24,7
2565.0,1670.0,267,73,24,7
2565.0,1670.0,271,73,24,7
2565.0,1671.0,270,73,24,7
2565.0,1671.0,270,73,24,7
2565.0,1671.0,269,73,24,7
2564.0,1673.0,270,73,24,7
2564.0,1674.0,269,72,24,7
2564.0,1674.0,268,72,24,7
2563.0,1675.0,269,73,24,7
2563.0,1675.0,268,72,24,7
2563.0,1675.0,268,72,24,7
2562.0,1677.0,268,71,24,7
2562.0,1677.0,268,72,24,7
2561.0,1679.0,268,71,24,7
2561.0,1679.0,268,87,24,7
2561.0,1679.0,267,87,24,7
2561.0,1681.0,267,87,24,7
2560.0,1681.0,267,87,24,7
2560.0,1681.0,267,86,24,7
2559.0,1682.0,266,86,24,7
2559.0,1682.0,266,86,24,7
2559.0,1684.0,266,86,24,7
2559.0,1684.0,265,86,23,9
2559.0,1684.0,265,86,24,9
2558.0,1685.0,265,86,24,9
2558.0,1685.0,265,86,23,12
2557.0,1687.0,265,85,24,13
2556.0,1687.0,265,85,24,25
2556.0,1687.0,265,85,23,33
2556.0,1689.0,264,85,23,34
2555.0,1690.0,264,85,23,34
2555.0,1690.0,263,85,23,34
2554.0,1691.0,263,84,23,33
2554.0,1692.0,263,84,23,33
2553.0,1692.0,263,84,23,34
2553.0,1692.0,263,84,23,33
2552.0,1694.0,263,84,23,34
2552.0,1694.0,263,84,23,33
2552.0,1694.0,263,84,23,33
2551.0,1695.0,263,83,23,33
2551.0,1695.0,263,83,23,33
2551.0,1696.0,263,83,23,33
2550.0,1697.0,263,83,23,33
2549.0,1698.0,262,83,23,33
2549.0,1698.0,263,83,23,33
2548.0,1699.0,262,83,23,33
2547.0,1701.0,262,83,23,33
2547.0,1701.0,262,83,23,33
2547.0,1701.0,262,83,23,33
2546.0,1703.0,262,83,23,33
2546.0,1703.0,262,83,23,33
2545.0,1704.0,262,83,23,32
2544.0,1705.0,261,83,23,32
2544.0,1705.0,261,83,23,32
2544.0,1705.0,261,83,23,33
2542.0,1707.0,261,83,23,32
2542.0,1707.0,260,82,23,33
2541.0,1708.0,260,82,23,32
2541.0,1708.0,260,82,23,32
2541.0,1708.0,260,82,23,32
2540.0,1710.0,259,82,22,32
2538.0,1711.0,259,82,23,32
2538.0,1711.0,259,82,23,32
2537.0,1712.0,259,82,22,31
2536.0,1713.0,259,81,22,31
2536.0,1713.0,259,82,22,31
2536.0,1714.0,259,81,22,32
2536.0,1714.0,259,81,22,31
2535.0,1715.0,259,81,22,31
2534.0,1716.0,258,81,22,31
2534.0,1716.0,258,81,22,31
2532.0,1717.0,258,81,22,31
2531.0,1718.0,258,81,22,31
2531.0,1718.0,258,81,22,31
2530.0,1719.0,257,81,22,31
2529.0,1720.0,257,81,22,31
2529.0,1720.0,257,80,22,31
2528.0,1721.0,257,80,22,31
2528.0,1721.0,257,80,22,31
2527.0,1721.0,257,80,22,31
2527.0,1722.0,257,80,22,31
2527.0,1722.0,256,79,22,31
2525.0,1723.0,256,79,22,31
2523.0,1725.0,127,79,22,31
2523.0,1725.0,127,79,22,31
2522.0,1726.0,127,79,22,31
2521.0,1726.0,127,79,22,31
2521.0,1726.0,127,79,22,31
2520.0,1727.0,127,79,22,31
2520.0,1727.0,127,79,22,31
2518.0,1729.0,127,79,23,31
2517.0,1730.0,127,79,22,31
2517.0,1730.0,127,79,23,31
2517.0,1730.0,127,79,23,31
2515.0,1731.0,127,79,23,31
2513.0,1733.0,127,79,22,31
2513.0,1733.0,126,79,23,31
2512.0,1734.0,126,79,22,31
2510.0,1735.0,126,79,22,31
2510.0,1735.0,126,78,22,31
2509.0,1735.0,126,78,22,30
2508.0,1736.0,125,78,22,30
2508.0,1736.0,125,78,22,31
2506.0,1738.0,125,78,22,31
2504.0,1739.0,125,78,22,30
2504.0,1739.0,125,78,22,31
2503.0,1739.0,125,78,22,31
2501.0,1741.0,124,78,22,31
2501.0,1741.0,124,78,22,30
2500.0,1741.0,124,78,22,30
2498.0,1742.0,124,77,22,30
2497.0,1743.0,124,77,22,30
2497.0,1743.0,124,77,22,30
2494.0,1744.0,124,77,22,30
2492.0,1746.0,124,77,22,30
2492.0,1746.0,124,77,22,30
2491.0,1746.0,123,77,22,30
2489.0,1747.0,123,76,22,30
2489.0,1747.0,123,76,22,30
2487.0,1748.0,123,77,22,30
2487.0,1748.0,123,76,22,30
2487.0,1748.0,122,76,22,30
2485.0,1749.0,123,76,22,30
2485.0,1749.0,121,76,21,30
2482.0,1750.0,121,76,22,30
2482.0,1750.0,121,76,22,30
2480.0,1751.0,121,76,22,30
2480.0,1751.0,121,76,22,29
2478.0,1752.0,121,76,21,29
2476.0,1753.0,121,76,22,30
2474.0,1754.0,121,76,22,30
2474.0,1754.0,120,76,21,29
2472.0,1755.0,121,76,22,30
2470.0,1755.0,120,76,21,30
2470.0,1755.0,120,75,21,29
2468.0,1756.0,120,75,22,30
2468.0,1756.0,120,75,22,29
2466.0,1757.0,120,75,23,29
2463.0,1758.0,120,75,23,29
2463.0,1758.0,120,75,23,29
2461.0,1758.0,120,75,23,29
2459.0,1759.0,120,75,23,29
2457.0,1760.0,120,75,23,29
2457.0,1760.0,120,75,23,29
2455.0,1761.0,120,75,23,29
2453.0,1761.0,120,74,23,29
2453.0,1761.0,120,74,23,29
2450.0,1762.0,120,74,23,29
2448.0,1763.0,120,74,22,28
2448.0,1763.0,119,73,22,29
2446.0,1764.0,119,73,22,29
2444.0,1764.0,119,73,22,28
2442.0,1764.0,119,74,23,28
2442.0,1764.0,119,74,22,28
2439.0,1765.0,118,73,22,28
2439.0,1765.0,118,73,22,28
2437.0,1766.0,118,73,22,28
2435.0,1766.0,118,73,22,28
2435.0,1766.0,118,73,22,28
2431.0,1767.0,118,73,22,28
2430.0,1767.0,118,73,22,28
2430.0,1767.0,117,73,22,28
2427.0,1768.0,117,73,22,28
2424.0,1769.0,116,73,22,28
2424.0,1769.0,116,73,22,28
2422.0,1769.0,116,72,22,28
2419.0,1769.0,116,73,22,28
2419.0,1769.0,116,72,22,28
2416.0,1770.0,115,72,22,28
2415.0,1770.0,116,72,22,28
2415.0,1770.0,116,72,22,28
2412.0,1771.0,115,72,22,28
2411.0,1771.0,115,71,22,28
2407.0,1772.0,115,71,22,28
2407.0,1772.0,115,71,22,28
2403.0,1772.0,115,71,22,28
2403.0,1772.0,115,71,21,28
2401.0,1772.0,115,71,22,28
2400.0,1772.0,115,71,22,28
2400.0,1772.0,115,71,21,28
2396.0,1772.0,114,71,22,28
2392.0,1773.0,115,71,22,28
2392.0,1773.0,114,71,24,28
2392.0,1773.0,114,71,24,28
2389.0,1773.0,114,71,24,28
2389.0,1773.0,114,71,24,28
2386.0,1773.0,113,71,24,28
2386.0,1773.0,113,71,24,28
2383.0,1773.0,113,71,24,28
2380.0,1773.0,113,71,24,28
2380.0,1773.0,113,71,24,28
2377.0,1774.0,113,71,24,28
2375.0,1774.0,113,71,24,27
2375.0,1774.0,112,71,24,28
2373.0,1774.0,112,71,24,28
2370.0,1774.0,112,71,24,27
2370.0,1774.0,112,70,24,27
2369.0,1774.0,112,70,24,27
2369.0,1774.0,112,71,24,27
2366.0,1774.0,112,71,24,28
2366.0,1774.0,112,70,24,27
2362.0,1774.0,112,70,24,27
2362.0,1774.0,112,70,24,27
2359.0,1774.0,112,70,24,27
2357.0,1774.0,111,70,24,27
2357.0,1774.0,111,70,24,27
2355.0,1774.0,111,70,24,27
2352.0,1774.0,111,70,24,27
2352.0,1774.0,111,70,24,27
2348.0,1774.0,111,70,24,27
2345.0,1774.0,110,70,24,27
2344.0,1774.0,110,69,24,27
2344.0,1774.0,111,70,24,27
2341.0,1774.0,110,69,24,27
2338.0,1774.0,110,70,24,27
2338.0,1774.0,110,69,24,27
2336.0,1774.0,110,69,24,27
2334.0,1773.0,110,69,24,27
2334.0,1773.0,110,69,24,27
2330.0,1773.0,109,69,24,27
2330.0,1773.0,109,68,23,27
2327.0,1773.0,109,68,23,27
2324.0,1773.0,109,68,24,27
2324.0,1773.0,108,68,24,27
2322.0,1773.0,108,68,23,27
2322.0,1773.0,109,68,24,27
2319.0,1772.0,108,68,23,26
2318.0,1772.0,108,68,24,27
2318.0,1772.0,108,68,24,27
2313.0,1771.0,110,68,24,27
2311.0,1770.0,111,67,24,27
2308.0,1770.0,125,67,24,26
2308.0,1770.0,125,68,24,26
2306.0,1770.0,125,67,24,27
2303.0,1770.0,124,67,24,26
2303.0,1770.0,124,67,24,27
2301.0,1769.0,124,67,24,27
2301.0,1769.0,124,67,23,26
2297.0,1768.0,124,67,23,26
2294.0,1767.0,124,67,24,26
2294.0,1767.0,124,67,23,25
2291.0,1766.0,124,67,23,26
2289.0,1766.0,124,67,23,25
2289.0,1766.0,123,67,24,26
2287.0,1766.0,123,67,23,26
2284.0,1765.0,123,67,24,26
2280.0,1763.0,123,67,23,25
2280.0,1763.0,123,67,23,25
2278.0,1763.0,123,67,23,25
2274.0,1762.0,123,67,24,25
2274.0,1762.0,122,66,23,25
2273.0,1762.0,121,67,24,25
2270.0,1761.0,122,68,23,25
2270.0,1761.0,121,69,23,25
2266.0,1759.0,121,68,23,25
2266.0,1759.0,121,69,23,25
2264.0,1759.0,121,68,23,25
2262.0,1758.0,121,68,23,25
2260.0,1757.0,121,68,23,25
2260.0,1757.0,120,68,23,25
2255.0,1756.0,120,68,23,25
2252.0,1755.0,120,68,23,25
2252.0,1755.0,120,68,23,25
2250.0,1754.0,120,67,23,25
2249.0,1753.0,120,67,23,25
2249.0,1753.0,120,67,23,25
2246.0,1752.0,120,67,23,25
2242.0,1751.0,120,67,22,25
2242.0,1751.0,120,67,23,25
2239.0,1750.0,119,67,23,25
2237.0,1749.0,119,67,23,25
2237.0,1749.0,119,67,22,25
2235.0,1748.0,119,67,22,24
2233.0,1747.0,119,67,23,25
2233.0,1747.0,119,67,23,24
2228.0,1745.0,118,67,23,25
2228.0,1745.0,118,67,22,24
2226.0,1744.0,118,67,23,24
2224.0,1743.0,118,67,22,24
2224.0,1743.0,118,67,22,25
2222.0,1742.0,118,67,22,24
2217.0,1740.0,118,67,22,24
2217.0,1740.0,118,67,22,24
2215.0,1739.0,117,67,22,24
2215.0,1739.0,117,67,22,24
2213.0,1738.0,117,67,22,25
2211.0,1736.0,116,66,22,24
2211.0,1736.0,116,66,22,24
2208.0,1735.0,116,66,22,24
2206.0,1734.0,116,66,22,24
2206.0,1734.0,115,66,22,24
2203.0,1732.0,116,65,22,24
2200.0,1731.0,115,65,22,24
2194.0,1728.0,115,66,22,24
2194.0,1728.0,115,65,22,24
2194.0,1728.0,115,65,22,24
2194.0,1727.0,115,65,22,24
2191.0,1726.0,115,65,22,24
2191.0,1726.0,115,73,22,24
2187.0,1723.0,115,83,22,24
2185.0,1722.0,115,84,22,24
2185.0,1722.0,115,84,22,24
2184.0,1721.0,114,84,22,24
2182.0,1719.0,114,83,22,24
2182.0,1719.0,114,84,22,24
2178.0,1718.0,114,83,22,24
2175.0,1715.0,114,83,22,24
2173.0,1714.0,113,83,22,24
2173.0,1714.0,113,83,21,24
2171.0,1712.0,113,83,21,24
2169.0,1711.0,113,83,22,24
2169.0,1711.0,113,83,22,24
2166.0,1709.0,113,83,22,24
2166.0,1709.0,113,83,22,24
2163.0,1707.0,113,83,22,24
2162.0,1706.0,112,83,21,24
2162.0,1706.0,112,82,21,24
2160.0,1705.0,112,83,22,24
2158.0,1702.0,112,82,22,24
2158.0,1702.0,112,82,22,24
2155.0,1700.0,112,82,24,24
2154.0,1699.0,112,82,24,24
2152.0,1697.0,112,81,24,24
2152.0,1697.0,112,82,24,24
2149.0,1695.0,112,81,24,24
2148.0,1694.0,111,81,24,24
2148.0,1694.0,111,81,24,24
2146.0,1692.0,111,81,24,24
2143.0,1690.0,111,81,24,24
2143.0,1690.0,111,81,24,24
2141.0,1687.0,110,81,24,24
2140.0,1687.0,111,81,24,24
2140.0,1687.0,110,81,24,24
2137.0,1684.0,110,81,24,23
2135.0,1682.0,110,80,24,24
2135.0,1682.0,110,81,24,24
2134.0,1680.0,110,80,23,23
2132.0,1678.0,110,79,24,24
2132.0,1678.0,109,79,23,24
2131.0,1678.0,110,80,24,24
2128.0,1675.0,109,79,24,24
2126.0,1673.0,109,79,24,23
2126.0,1673.0,109,79,24,23
2123.0,1669.0,108,79,23,23
2123.0,1669.0,108,79,24,23
2123.0,1669.0,108,79,24,23
2121.0,1666.0,108,79,24,23
2121.0,1666.0,108,79,23,23
2119.0,1665.0,108,79,23,23
2118.0,1663.0,108,79,23,23
2118.0,1663.0,108,79,23,23
2115.0,1660.0,108,79,23,23
2115.0,1659.0,108,79,23,23
2115.0,1659.0,108,79,23,23
2113.0,1656.0,107,79,23,23
2111.0,1654.0,107,79,23,23
2111.0,1654.0,107,79,23,23
2110.0,1653.0,107,79,23,23
2109.0,1650.0,107,78,23,23
2109.0,1650.0,107,79,23,23
2107.0,1648.0,106,78,23,22
2106.0,1646.0,106,78,23,23
2106.0,1646.0,106,78,23,22
2105.0,1645.0,106,78,23,23
2105.0,1645.0,106,78,24,23
2103.0,1642.0,106,78,25,22
2103.0,1641.0,106,78,32,23
2100.0,1638.0,105,78,37,22
2100.0,1638.0,105,77,38,23
2100.0,1637.0,107,77,38,22
2098.0,1633.0,108,77,38,22
2098.0,1633.0,109,78,38,22
2098.0,1633.0,108,77,38,22
2096.0,1629.0,108,77,37,22
2096.0,1629.0,108,77,38,22
2096.0,1629.0,108,77,37,22
2094.0,1626.0,108,76,37,22
2094.0,1625.0,108,77,38,23
2094.0,1625.0,108,76,37,22
2093.0,1621.0,108,76,37,22
2092.0,1620.0,108,76,37,22
2092.0,1620.0,107,76,37,22
2090.0,1617.0,108,76,37,22
2090.0,1615.0,108,76,36,22
2090.0,1615.0,107,76,36,22
2090.0,1613.0,107,76,37,22
2088.0,1611.0,107,76,36,22
2088.0,1611.0,107,76,36,22
2087.0,1609.0,106,76,36,22
2087.0,1609.0,106,76,36,22
2087.0,1607.0,107,76,36,22
2086.0,1604.0,105,75,36,22
2086.0,1604.0,106,76,36,22
2085.0,1602.0,105,75,35,22
2085.0,1602.0,105,75,36,22
2085.0,1600.0,105,75,36,22
2084.0,1598.0,105,75,36,22
2084.0,1598.0,105,75,36,22
2084.0,1596.0,105,75,36,22
2084.0,1596.0,104,75,36,22
2084.0,1596.0,104,75,36,22
2083.0,1593.0,104,75,36,22
2083.0,1593.0,104,74,35,22
2083.0,1593.0,104,75,35,21
2082.0,1590.0,103,74,36,22
2082.0,1590.0,103,74,35,22
2082.0,1589.0,103,74,35,22
2082.0,1587.0,103,74,35,21
2082.0,1587.0,103,74,35,22
2081.0,1585.0,103,74,35,21
2081.0,1582.0,103,73,35,21
2080.0,1580.0,103,73,35,22
2080.0,1580.0,103,73,35,21
2080.0,1579.0,103,73,35,21
2080.0,1579.0,103,73,35,21
2079.0,1577.0,103,73,35,21
2079.0,1574.0,104,73,35,21
2079.0,1574.0,104,73,35,21
2079.0,1572.0,103,73,35,21
2079.0,1570.0,104,73,35,21
2079.0,1570.0,103,73,35,21
2079.0,1568.0,103,73,35,20
2079.0,1566.0,103,72,35,21
2079.0,1563.0,103,72,35,21
2079.0,1563.0,103,72,35,20
2078.0,1561.0,103,72,35,20
2078.0,1561.0,103,71,35,20
2078.0,1561.0,103,72,35,20
2078.0,1559.0,103,71,35,21
2078.0,1556.0,103,71,35,20
2078.0,1556.0,103,71,34,20
2078.0,1554.0,103,71,35,20
2078.0,1551.0,103,71,35,20
2078.0,1551.0,102,71,35,20
2078.0,1548.0,102,71,35,20
2078.0,1548.0,103,71,35,20
2078.0,1547.0,103,71,35,20
2078.0,1545.0,102,71,34,20
2078.0,1545.0,102,71,35,20
2078.0,1544.0,102,71,35,20
2078.0,1543.0,102,71,34,20
2078.0,1543.0,102,71,34,20
2078.0,1540.0,102,71,34,20
2078.0,1537.0,102,71,34,20
2078.0,1537.0,101,71,34,20
2078.0,1535.0,101,71,34,20
2078.0,1534.0,100,71,34,20
2078.0,1534.0,100,71,34,20
2078.0,1531.0,100,71,34,20
2078.0,1530.0,101,71,34,19
2078.0,1530.0,100,71,33,19
2078.0,1528.0,100,71,33,20
2079.0,1526.0,100,71,34,20
2080.0,1524.0,100,71,33,20
2080.0,1524.0,100,71,33,20
2081.0,1521.0,99,71,33,20
2081.0,1520.0,99,71,33,19
2081.0,1520.0,99,70,33,20
2081.0,1517.0,99,70,33,19
2081.0,1517.0,99,70,34,20
2081.0,1517.0,99,70,33,20
2082.0,1515.0,99,70,33,19
2083.0,1513.0,99,70,33,19
2083.0,1513.0,99,70,33,20
2084.0,1511.0,99,70,33,19
2085.0,1508.0,99,69,33,19
2085.0,1508.0,99,69,33,19
2085.0,1508.0,99,70,33,19
2087.0,1504.0,98,69,33,19
2087.0,1503.0,98,70,33,19
2087.0,1503.0,98,69,33,19
2087.0,1502.0,98,69,33,19
2087.0,1502.0,97,69,33,19
2088.0,1501.0,97,68,33,19
2089.0,1498.0,97,69,33,19
2090.0,1496.0,97,68,33,19
2090.0,1496.0,97,68,33,19
2092.0,1493.0,97,68,33,19
2092.0,1492.0,97,68,33,19
2092.0,1492.0,97,68,33,19
2093.0,1491.0,97,68,32,19
2094.0,1489.0,97,68,33,19
2094.0,1489.0,97,68,33,19
2095.0,1487.0,96,68,32,19
2097.0,1485.0,96,71,33,19
2098.0,1483.0,96,71,32,19
2098.0,1483.0,96,71,32,19
2099.0,1481.0,96,70,32,19
2099.0,1481.0,96,70,33,19
2101.0,1479.0,96,70,31,19
2101.0,1478.0,96,70,31,19
2101.0,1478.0,96,70,32,19
2103.0,1476.0,96,70,32,19
2104.0,1474.0,96,70,31,19
2104.0,1474.0,96,70,31,19
2106.0,1473.0,95,70,31,19
2106.0,1473.0,95,70,32,19
2106.0,1472.0,96,69,31,19
2108.0,1471.0,95,69,31,19
2108.0,1471.0,95,69,31,19
2109.0,1469.0,95,70,31,19
2110.0,1467.0,95,69,31,19
2112.0,1466.0,95,68,31,19
2112.0,1466.0,95,69,31,19
2114.0,1463.0,95,68,31,19
2115.0,1463.0,95,68,31,19
2115.0,1463.0,94,68,32,19
2117.0,1461.0,96,68,32,19
2117.0,1461.0,99,68,31,19
2117.0,1459.0,101,68,32,19
2117.0,1459.0,100,68,31,19
2120.0,1458.0,100,68,32,19
2122.0,1456.0,100,67,31,19
2122.0,1456.0,100,68,31,19
2123.0,1455.0,100,67,31,19
2126.0,1453.0,100,67,31,19
2126.0,1453.0,99,67,31,18
2127.0,1452.0,100,67,31,19
2129.0,1450.0,99,67,31,19
2129.0,1450.0,99,67,31,19
2131.0,1449.0,99,67,31,19
2133.0,1448.0,99,67,31,19
2134.0,1446.0,99,67,31,18
2134.0,1446.0,99,67,31,18
2137.0,1445.0,99,67,31,19
2138.0,1443.0,99,67,31,19
2138.0,1443.0,99,67,31,19
2140.0,1442.0,99,67,31,18
2140.0,1442.0,98,67,31,19
2142.0,1441.0,99,67,31,18
2144.0,1440.0,99,67,31,18
2144.0,1440.0,98,67,31,19
2147.0,1437.0,98,67,31,18
2149.0,1436.0,97,67,31,18
2149.0,1436.0,97,66,31,18
2152.0,1435.0,97,66,31,18
2154.0,1433.0,97,67,31,18
2154.0,1433.0,97,66,31,18
2155.0,1433.0,97,66,31,18
2159.0,1431.0,97,66,31,18
2159.0,1431.0,97,66,31,18
2162.0,1429.0,97,66,31,18
2163.0,1429.0,97,66,31,18
2163.0,1429.0,96,65,31,18
2165.0,1427.0,96,65,31,18
2168.0,1426.0,96,65,31,18
2170.0,1426.0,96,65,31,17
2170.0,1426.0,96,65,31,17
2173.0,1424.0,96,65,31,18
2176.0,1422.0,96,65,31,18
2176.0,1422.0,96,65,31,17
2177.0,1422.0,96,65,30,17
2177.0,1422.0,96,65,31,17
2180.0,1421.0,106,65,31,17
2183.0,1420.0,127,65,30,17
2186.0,1419.0,260,65,31,18
2186.0,1419.0,260,64,30,17
2188.0,1418.0,260,65,31,17
2190.0,1417.0,259,64,30,17
2190.0,1417.0,260,65,30,17
2193.0,1416.0,259,64,30,17
2195.0,1416.0,259,64,30,17
2195.0,1416.0,259,64,30,17
2198.0,1414.0,259,64,31,17
2201.0,1413.0,259,63,30,17
2201.0,1413.0,259,63,30,17
2202.0,1413.0,259,63,30,17
2206.0,1413.0,258,63,30,17
2210.0,1411.0,258,63,30,17
2210.0,1411.0,257,63,30,17
2213.0,1410.0,257,63,30,17
2213.0,1410.0,257,63,30,17
2215.0,1409.0,257,63,30,17
2217.0,1409.0,257,63,30,17
2220.0,1409.0,257,63,30,17
2220.0,1409.0,256,63,30,17
2224.0,1408.0,257,63,30,17
2226.0,1407.0,256,65,30,17
2226.0,1407.0,127,65,30,17
2229.0,1406.0,127,65,30,17
2231.0,1406.0,127,65,30,17
2231.0,1406.0,127,64,29,17
2233.0,1405.0,127,65,30,17
2233.0,1405.0,127,64,30,17
2237.0,1405.0,127,65,30,17
2240.0,1405.0,127,64,30,17
2242.0,1404.0,127,64,29,17
2242.0,1404.0,127,64,30,17
2244.0,1404.0,127,63,29,17
2248.0,1403.0,127,64,29,17
2248.0,1403.0,127,63,29,17
2251.0,1403.0,126,63,29,17
2254.0,1402.0,126,63,29,17
2254.0,1402.0,126,63,29,16
2256.0,1402.0,126,63,29,17
2258.0,1402.0,126,63,29,16
2261.0,1402.0,125,63,29,17
2261.0,1402.0,125,63,29,17
2265.0,1402.0,125,63,29,17
2265.0,1402.0,125,63,29,16
2267.0,1402.0,126,63,29,17
2270.0,1402.0,262,63,29,16
2272.0,1401.0,262,63,29,17
2272.0,1401.0,262,63,29,17
2275.0,1401.0,262,63,28,16
2277.0,1401.0,262,63,29,16
2277.0,1401.0,261,63,28,16
2281.0,1401.0,261,63,29,16
2281.0,1401.0,261,63,28,17
2283.0,1401.0,260,62,28,16
2286.0,1401.0,260,63,28,16
2288.0,1401.0,260,63,28,16
2288.0,1401.0,259,63,28,16
2290.0,1401.0,259,63,28,16
2290.0,1401.0,259,62,28,16
2293.0,1401.0,259,63,28,16
2296.0,1401.0,259,62,28,16
2298.0,1401.0,259,62,28,16
2302.0,1401.0,259,62,28,16
2302.0,1401.0,259,62,28,16
2304.0,1401.0,259,62,28,16
2306.0,1401.0,259,63,28,16
2306.0,1401.0,258,70,28,16
2309.0,1401.0,259,73,28,16
2311.0,1401.0,258,75,28,16
2311.0,1401.0,258,74,28,16
2313.0,1401.0,257,74,28,16
2316.0,1401.0,258,74,28,16
2316.0,1401.0,257,74,28,16
2319.0,1401.0,257,73,28,15
2321.0,1402.0,257,73,28,15
2321.0,1402.0,257,73,28,15
2323.0,1402.0,257,73,28,15
2325.0,1403.0,256,73,28,15
2325.0,1403.0,256,73,28,15
2327.0,1403.0,127,73,28,15
2329.0,1403.0,127,73,28,15
2332.0,1403.0,127,73,28,15
2332.0,1403.0,127,72,28,15
2334.0,1404.0,127,72,28,15
2336.0,1405.0,127,73,28,15
2336.0,1405.0,127,72,27,15
2338.0,1406.0,127,72,28,15
2340.0,1406.0,127,71,28,15
2342.0,1406.0,127,72,28,15
2342.0,1406.0,127,71,28,15
2345.0,1407.0,126,71,28,15
2347.0,1408.0,127,71,28,15
2347.0,1408.0,126,71,28,15
2349.0,1409.0,126,71,28,15
2351.0,1409.0,126,71,28,15
2353.0,1410.0,126,71,28,15
2353.0,1410.0,126,71,28,15
2355.0,1411.0,125,71,28,15
2355.0,1411.0,125,71,28,15
2357.0,1411.0,125,71,28,15
2357.0,1411.0,124,71,28,15
2358.0,1412.0,125,71,28,15
2358.0,1412.0,124,71,28,15
2361.0,1414.0,124,71,28,15
2361.0,1414.0,124,71,28,15
2361.0,1414.0,124,71,27,15
2361.0,1414.0,124,71,28,15
2363.0,1415.0,124,71,28,15
2363.0,1415.0,124,71,28,15
2365.0,1416.0,124,71,28,15
2368.0,1416.0,124,71,27,15
2368.0,1416.0,123,71,27,15
2369.0,1418.0,123,70,27,15
2369.0,1418.0,123,71,27,15
2369.0,1418.0,123,70,27,15
2371.0,1419.0,123,71,27,15
2371.0,1419.0,123,70,27,15
2373.0,1420.0,123,70,28,15
2373.0,1420.0,123,70,27,15
2373.0,1420.0,122,70,27,15
2374.0,1421.0,122,70,27,15
2374.0,1421.0,121,70,27,15
2377.0,1423.0,121,70,27,15
2377.0,1423.0,121,69,27,15
2379.0,1425.0,121,69,27,15
2381.0,1426.0,120,69,27,15
2381.0,1426.0,120,69,27,15
2382.0,1426.0,120,69,27,15
2384.0,1428.0,121,69,27,15
2384.0,1428.0,120,68,27,15
2384.0,1428.0,120,69,27,15
2387.0,1431.0,120,68,27,15
2387.0,1431.0,120,68,27,15
2388.0,1432.0,120,68,27,15
2389.0,1433.0,120,68,27,15
2389.0,1433.0,120,68,27,15
2390.0,1433.0,120,68,27,15
2391.0,1436.0,120,68,27,15
2393.0,1437.0,120,68,27,15
2393.0,1437.0,119,68,27,15
2393.0,1438.0,119,68,27,15
2394.0,1439.0,119,67,27,15
2394.0,1439.0,118,67,27,15
2395.0,1440.0,119,67,27,15
2396.0,1442.0,119,67,27,15
2396.0,1442.0,118,67,27,15
2397.0,1443.0,118,67,27,15
2397.0,1444.0,118,67,27,15
2397.0,1444.0,118,67,27,15
2399.0,1445.0,118,67,27,14
2399.0,1445.0,118,67,27,14
2399.0,1446.0,118,67,27,15
2399.0,1448.0,117,67,26,15
2399.0,1448.0,117,67,26,15
2401.0,1449.0,116,67,27,15
2401.0,1450.0,116,67,27,14
2401.0,1450.0,116,67,27,14
2401.0,1451.0,116,67,26,14
2402.0,1453.0,116,67,26,14
2402.0,1453.0,116,67,27,15
2403.0,1454.0,116,67,27,15
2403.0,1455.0,116,66,26,14
2403.0,1455.0,115,66,26,14
2403.0,1457.0,115,66,25,15
2404.0,1458.0,115,66,25,14
2404.0,1458.0,115,66,25,14
2404.0,1460.0,115,66,25,14
2405.0,1462.0,115,66,26,14
2405.0,1462.0,115,65,26,14
2405.0,1463.0,115,65,25,14
2405.0,1463.0,115,65,26,14
2405.0,1463.0,114,65,25,14
2405.0,1465.0,114,65,25,14
2405.0,1467.0,114,65,25,14
2405.0,1467.0,114,65,26,14
2405.0,1468.0,113,65,25,14
2405.0,1469.0,113,65,26,14
2405.0,1469.0,113,65,25,14
2405.0,1470.0,113,65,25,14
2405.0,1472.0,113,65,25,14
2405.0,1472.0,113,65,25,14
2405.0,1474.0,113,65,25,14
2405.0,1474.0,113,65,26,14
2405.0,1474.0,113,65,25,14
2405.0,1477.0,113,64,26,14
2405.0,1478.0,113,64,25,14
2405.0,1478.0,113,64,26,14
2405.0,1479.0,113,64,25,14
2405.0,1481.0,113,64,26,14
2405.0,1481.0,113,63,26,14
2405.0,1481.0,113,64,26,14
2404.0,1483.0,112,63,25,14
2404.0,1483.0,112,63,25,14
2404.0,1485.0,112,63,25,14
2404.0,1485.0,112,63,25,14
2403.0,1487.0,112,63,25,14
2403.0,1487.0,112,63,25,14
2400.0,1493.0,111,63,25,14
2400.0,1494.0,112,63,25,14
2400.0,1494.0,111,63,25,14
2399.0,1496.0,111,63,25,14
2398.0,1497.0,111,63,25,14
2398.0,1497.0,111,63,25,14
2398.0,1497.0,111,63,25,13
2396.0,1499.0,111,63,25,14
2396.0,1499.0,111,63,25,14
2395.0,1501.0,111,63,25,14
2394.0,1502.0,110,63,25,14
2394.0,1502.0,110,63,25,14
2394.0,1503.0,110,63,25,14
2392.0,1504.0,110,63,25,13
2392.0,1504.0,110,63,25,13
2392.0,1505.0,110,62,25,13
2392.0,1505.0,110,63,25,14
2389.0,1508.0,109,62,25,14
2389.0,1508.0,109,63,25,14
2389.0,1508.0,110,63,25,14
2387.0,1510.0,109,62,25,13
2386.0,1512.0,108,62,25,14
2386.0,1512.0,108,62,25,14
2385.0,1512.0,108,62,24,14
2385.0,1513.0,108,62,25,13
2385.0,1513.0,108,62,25,14
2383.0,1514.0,108,62,24,14
2381.0,1515.0,108,62,24,13
2381.0,1515.0,108,62,24,13
2380.0,1517.0,108,62,24,13
2380.0,1517.0,108,61,24,13
2378.0,1517.0,108,61,25,13
2378.0,1518.0,107,61,25,13
2378.0,1518.0,107,61,24,13
2376.0,1519.0,107,61,25,13
2374.0,1521.0,107,61,25,13
2374.0,1521.0,107,60,24,13
2372.0,1522.0,107,60,25,13
2371.0,1522.0,106,60,24,13
2371.0,1522.0,107,61,24,13
2369.0,1524.0,106,61,24,13
2367.0,1525.0,106,60,24,13
2367.0,1525.0,106,60,25,13
2366.0,1525.0,105,61,24,13
2365.0,1526.0,105,60,24,13
2365.0,1526.0,105,60,24,13
2362.0,1527.0,105,60,24,12
2360.0,1528.0,105,60,24,13
2358.0,1530.0,105,60,24,13
2358.0,1530.0,105,60,24,13
2357.0,1530.0,105,60,24,13
2355.0,1530.0,104,60,24,13
2352.0,1532.0,104,60,24,13
2351.0,1533.0,104,60,24,12
2351.0,1533.0,103,63,24,13
2350.0,1533.0,103,63,24,13
2350.0,1533.0,103,64,24,12
2346.0,1534.0,103,63,24,13
2346.0,1534.0,103,63,24,12
2346.0,1534.0,103,63,24,12
2344.0,1535.0,103,63,24,13
2342.0,1535.0,103,63,24,13
2342.0,1535.0,103,63,24,12
2340.0,1535.0,103,63,24,13
2336.0,1536.0,103,63,24,12
2336.0,1536.0,103,63,24,13
2335.0,1537.0,103,63,24,12
2332.0,1537.0,103,63,24,12
2330.0,1538.0,103,63,24,12
2330.0,1538.0,103,63,24,12
2328.0,1538.0,103,63,24,12
2328.0,1538.0,103,63,24,12
2326.0,1538.0,102,63,24,12
2326.0,1538.0,102,63,24,12
2323.0,1538.0,103,63,24,12
2323.0,1538.0,102,63,24,12
2321.0,1538.0,102,63,24,12
2319.0,1539.0,102,62,24,12
2319.0,1539.0,102,63,24,12
2317.0,1539.0,102,63,24,12
2315.0,1539.0,102,63,24,12
2315.0,1539.0,101,62,24,12
2312.0,1539.0,101,62,24,12
2312.0,1539.0,101,62,24,12
2310.0,1540.0,101,62,24,12
2308.0,1540.0,101,62,24,12
2308.0,1540.0,100,62,24,12
2305.0,1540.0,100,62,24,12
2303.0,1540.0,100,62,24,12
2303.0,1540.0,100,62,24,12
2301.0,1540.0,100,62,24,12
2297.0,1540.0,100,62,24,12
2297.0,1540.0,99,61,24,12
2295.0,1540.0,99,61,24,12
2292.0,1540.0,99,62,24,12
2291.0,1540.0,99,61,24,12
2291.0,1540.0,99,61,24,12
2288.0,1540.0,99,61,24,12
2285.0,1540.0,99,61,24,12
2283.0,1540.0,99,60,23,12
2283.0,1540.0,99,61,24,12
2280.0,1540.0,99,61,24,12
2278.0,1540.0,99,61,23,12
2278.0,1540.0,99,60,24,12
2276.0,1540.0,98,60,24,12
2274.0,1540.0,98,60,23,12
2274.0,1540.0,98,60,23,12
2270.0,1539.0,98,61,23,12
2267.0,1538.0,98,60,23,12
2265.0,1538.0,98,60,24,12
2265.0,1538.0,97,60,23,12
2262.0,1538.0,98,60,23,12
2259.0,1537.0,97,60,23,12
2257.0,1537.0,97,60,23,12
2257.0,1537.0,97,60,23,12
2255.0,1536.0,97,60,23,12
2251.0,1535.0,97,60,23,12
2249.0,1535.0,97,60,23,12
2249.0,1535.0,97,60,23,12
2246.0,1534.0,97,60,23,12
2246.0,1534.0,96,59,23,12
2244.0,1534.0,96,60,23,12
2241.0,1533.0,96,60,23,12
2239.0,1532.0,96,60,23,12
2239.0,1532.0,96,59,23,12
2235.0,1532.0,96,59,23,12
2235.0,1532.0,96,59,23,12
2233.0,1531.0,96,59,23,12
2230.0,1530.0,96,59,23,12
2230.0,1530.0,96,59,23,12
2228.0,1529.0,96,59,23,12
2225.0,1529.0,96,59,23,12
2225.0,1529.0,96,59,23,11
2223.0,1528.0,96,59,23,12
2219.0,1526.0,96,59,22,12
2219.0,1526.0,96,59,23,11
2216.0,1525.0,95,59,23,12
2216.0,1525.0,95,59,22,11
2214.0,1525.0,95,58,23,12
2212.0,1524.0,95,59,22,11
2209.0,1522.0,95,58,23,12
2209.0,1522.0,95,58,22,12
2205.0,1522.0,95,58,22,12
2203.0,1520.0,95,57,22,11
2203.0,1520.0,94,57,22,11
2200.0,1519.0,94,59,23,11
2200.0,1519.0,94,61,22,11
2198.0,1519.0,94,63,22,12
2196.0,1517.0,94,63,22,12
2192.0,1516.0,94,63,22,11
2192.0,1516.0,94,63,22,11
2190.0,1515.0,94,63,22,12
2190.0,1515.0,94,63,22,12
2187.0,1513.0,94,63,22,11
2185.0,1513.0,94,63,22,12
2185.0,1513.0,93,63,22,12
2183.0,1512.0,93,63,22,11
2179.0,1509.0,93,63,22,11
2179.0,1509.0,93,63,22,11
2176.0,1508.0,93,63,22,11
2174.0,1507.0,93,63,22,11
2172.0,1506.0,92,63,22,11
2172.0,1506.0,92,62,22,11
2170.0,1505.0,92,62,22,11
2170.0,1505.0,92,63,22,11
2166.0,1503.0,92,62,22,11
2164.0,1502.0,92,62,22,11
2161.0,1500.0,92,62,22,11
2161.0,1500.0,92,62,22,11
2159.0,1499.0,92,62,22,11
2157.0,1498.0,92,62,22,11
2157.0,1498.0,97,62,22,11
2155.0,1496.0,99,62,22,11
2153.0,1495.0,98,62,22,11
2153.0,1495.0,99,61,22,11
2150.0,1493.0,98,62,22,11
2147.0,1492.0,98,61,22,11
2147.0,1492.0,97,61,22,11
2146.0,1490.0,97,61,22,11
2143.0,1489.0,97,61,22,11
2143.0,1489.0,97,61,22,11
2141.0,1487.0,97,61,22,11
2139.0,1486.0,97,61,22,11
2139.0,1486.0,97,61,22,11
2137.0,1484.0,97,60,22,11
2135.0,1483.0,97,61,22,11
2135.0,1483.0,96,61,22,11
2133.0,1481.0,97,60,22,11
2131.0,1480.0,96,60,22,11
2131.0,1480.0,96,60,22,11
2130.0,1479.0,96,60,22,11
2130.0,1479.0,96,60,21,11
2126.0,1476.0,96,65,22,11
2125.0,1475.0,96,74,21,11
2123.0,1473.0,96,75,22,11
2123.0,1473.0,96,75,21,11
2122.0,1471.0,96,75,22,11
2121.0,1470.0,95,75,21,11
2121.0,1470.0,95,74,21,11
2119.0,1469.0,95,75,21,10
2119.0,1469.0,95,75,21,11
2117.0,1467.0,95,73,21,10
2115.0,1465.0,95,74,21,11
2114.0,1464.0,95,73,21,11
2114.0,1464.0,94,73,20,10
2113.0,1462.0,94,73,21,11
2112.0,1461.0,94,73,20,10
2112.0,1461.0,94,73,21,10
2111.0,1460.0,94,73,20,10
2111.0,1460.0,94,73,21,11
2109.0,1458.0,94,73,20,10
2108.0,1456.0,94,72,20,10
2108.0,1456.0,94,72,20,10
2106.0,1455.0,94,73,20,10
2106.0,1453.0,93,73,22,11
2106.0,1453.0,94,72,24,11
2104.0,1451.0,93,72,24,10
2103.0,1449.0,95,72,24,11
2103.0,1449.0,96,71,24,10
2103.0,1448.0,96,71,23,10
2103.0,1448.0,96,71,24,11
2102.0,1447.0,96,71,24,10
2101.0,1445.0,96,71,24,10
2101.0,1445.0,96,71,24,11
2100.0,1442.0,96,71,24,10
2099.0,1441.0,96,71,24,9
2099.0,1441.0,96,71,23,10
2099.0,1441.0,96,71,23,9
2099.0,1441.0,95,71,23,10
2098.0,1439.0,95,71,24,10
2097.0,1437.0,95,71,23,9
2097.0,1437.0,95,71,24,10
2097.0,1437.0,95,71,23,10
2097.0,1437.0,95,71,23,9
2096.0,1435.0,95,71,23,9
2095.0,1433.0,94,71,23,10
2095.0,1433.0,94,71,23,10
2095.0,1430.0,95,71,23,9
2095.0,1430.0,94,71,23,10
2094.0,1428.0,94,71,23,9
2094.0,1428.0,94,71,23,9
2094.0,1426.0,94,71,23,9
2094.0,1426.0,94,70,23,9
2094.0,1424.0,94,70,23,10
2094.0,1424.0,93,70,23,9
2094.0,1422.0,94,70,23,9
2094.0,1422.0,94,70,23,10
2093.0,1420.0,93,70,23,9
2093.0,1420.0,93,70,23,9
2093.0,1419.0,92,70,23,9
2093.0,1417.0,93,70,23,9
2093.0,1417.0,92,70,23,10
2093.0,1416.0,92,69,23,9
2093.0,1415.0,92,69,22,10
2093.0,1413.0,92,70,23,10
2093.0,1413.0,92,69,22,9
2093.0,1412.0,92,68,23,9
2093.0,1411.0,92,69,22,9
2093.0,1411.0,92,69,22,10
2093.0,1408.0,92,69,22,9
2093.0,1407.0,92,68,22,9
2093.0,1407.0,92,68,23,9
2093.0,1407.0,92,68,23,9
2093.0,1405.0,95,68,23,9
2093.0,1405.0,103,68,23,9
2093.0,1402.0,105,68,23,9
2093.0,1402.0,104,68,23,9
2093.0,1400.0,103,68,23,9
2093.0,1400.0,104,68,22,9
2093.0,1399.0,103,68,23,9
2093.0,1399.0,103,67,23,9
2093.0,1398.0,103,67,23,9
2093.0,1398.0,103,67,23,9
2094.0,1395.0,103,67,23,9
2095.0,1393.0,103,67,22,9
2095.0,1393.0,103,67,23,9
2095.0,1392.0,103,67,23,9
2096.0,1391.0,103,67,22,9
2096.0,1391.0,103,67,23,9
2096.0,1389.0,103,67,23,9
2097.0,1388.0,103,67,22,9
2097.0,1388.0,103,67,22,9
2097.0,1387.0,102,67,23,9
2098.0,1385.0,102,67,22,9
2099.0,1383.0,102,67,22,9
2100.0,1382.0,102,67,22,9
2100.0,1382.0,102,67,22,9
2101.0,1380.0,102,66,22,9
2102.0,1380.0,102,66,22,9
2103.0,1378.0,101,66,22,9
2103.0,1377.0,101,66,22,9
2103.0,1377.0,101,66,22,9
2105.0,1374.0,101,66,22,9
2106.0,1374.0,101,66,22,9
2106.0,1374.0,101,66,22,9
2106.0,1372.0,100,66,22,9
2108.0,1371.0,100,66,22,9
2108.0,1371.0,100,66,22,9
2109.0,1369.0,100,65,22,9
2111.0,1368.0,100,65,22,9
2111.0,1368.0,100,65,22,9
2112.0,1367.0,99,65,21,9
2113.0,1365.0,99,65,22,9
2113.0,1365.0,99,65,22,9
2115.0,1363.0,99,65,22,9
2116.0,1362.0,99,65,22,9
2116.0,1362.0,99,65,22,9
2117.0,1361.0,99,65,22,9
2119.0,1359.0,109,65,22,9
2119.0,1359.0,263,65,23,8
2121.0,1358.0,275,65,23,9
2123.0,1356.0,276,64,22,8
2123.0,1356.0,275,64,22,9
2124.0,1355.0,275,64,22,9
2125.0,1354.0,275,65,22,9
2127.0,1352.0,275,64,22,9
2127.0,1352.0,275,64,22,9
2129.0,1351.0,275,63,22,9
2129.0,1351.0,275,63,22,9
2131.0,1349.0,273,63,22,9
2133.0,1348.0,274,63,22,9
2133.0,1348.0,273,63,22,9
2134.0,1347.0,273,63,22,9
2134.0,1347.0,273,63,22,9
2137.0,1346.0,273,63,22,9
2138.0,1344.0,272,63,22,9
2138.0,1344.0,272,63,22,9
2140.0,1343.0,272,63,22,9
2143.0,1341.0,271,63,22,9
2143.0,1341.0,271,63,22,8
2146.0,1340.0,271,63,22,8
2148.0,1338.0,271,63,22,8
2151.0,1337.0,271,64,22,9
2151.0,1337.0,271,63,22,9
2153.0,1335.0,271,63,21,8
2153.0,1335.0,271,63,22,9
2155.0,1335.0,271,63,22,9
2157.0,1334.0,270,63,21,8
2157.0,1334.0,270,63,22,9
2161.0,1331.0,270,63,22,8
2163.0,1331.0,270,63,22,9
2163.0,1331.0,270,63,22,8
2166.0,1329.0,269,63,21,8
2168.0,1328.0,269,63,21,8
2168.0,1328.0,269,63,21,8
2170.0,1327.0,269,63,21,8
2174.0,1325.0,268,63,21,8
2178.0,1323.0,268,63,21,8
2178.0,1323.0,268,63,21,8
2179.0,1323.0,268,63,21,8
2183.0,1321.0,268,63,21,8
2186.0,1320.0,268,63,21,8
2186.0,1320.0,268,63,21,8
2189.0,1320.0,267,63,21,8
2193.0,1317.0,268,63,21,7
2193.0,1317.0,267,63,21,8
2196.0,1316.0,267,63,22,7
2196.0,1316.0,267,63,21,8
2197.0,1315.0,267,63,21,7
2203.0,1314.0,266,62,21,8
2206.0,1313.0,266,62,21,7
2206.0,1313.0,266,62,21,8
2209.0,1311.0,265,62,20,8
2211.0,1311.0,265,62,21,7
2211.0,1311.0,265,62,21,8
2216.0,1310.0,265,62,21,7
2219.0,1309.0,265,62,20,8
2219.0,1309.0,265,62,20,7
2224.0,1307.0,264,62,21,7
2228.0,1305.0,264,62,20,8
2232.0,1305.0,263,62,21,8
2232.0,1305.0,263,62,20,8
2236.0,1304.0,263,62,21,7
2236.0,1304.0,263,62,20,7
2239.0,1303.0,263,61,20,7
2239.0,1303.0,263,61,20,7
2243.0,1302.0,263,61,20,8
2248.0,1300.0,263,62,20,7
2248.0,1300.0,263,63,20,8
2253.0,1299.0,263,66,20,7
2256.0,1299.0,263,67,20,7
2256.0,1299.0,263,67,20,7
2260.0,1298.0,263,67,20,8
2265.0,1297.0,262,66,20,7
2265.0,1297.0,263,66,20,8
2268.0,1296.0,262,66,20,7
2274.0,1294.0,262,66,20,7
2274.0,1294.0,262,66,20,7
2280.0,1293.0,262,66,20,7
2283.0,1293.0,261,65,20,7
2283.0,1293.0,261,66,20,7
2288.0,1292.0,262,66,20,7
2293.0,1291.0,260,66,20,7
2293.0,1291.0,260,65,20,7
2298.0,1290.0,260,65,19,7
2301.0,1289.0,260,65,20,7
2301.0,1289.0,259,65,20,7
2307.0,1288.0,260,65,20,7
2307.0,1288.0,259,65,19,7
2313.0,1287.0,259,65,19,7
2318.0,1286.0,259,65,20,7
2318.0,1286.0,259,65,20,7
2321.0,1285.0,259,65,20,7
2327.0,1284.0,259,64,20,7
2327.0,1284.0,259,64,19,7
2334.0,1284.0,259,65,20,7
2334.0,1284.0,259,64,20,7
2337.0,1284.0,258,64,20,7
2342.0,1283.0,258,64,19,7
2342.0,1283.0,258,63,20,7
2348.0,1282.0,257,63,20,7
2353.0,1281.0,258,63,20,7
2353.0,1281.0,257,63,19,7
2359.0,1281.0,257,63,19,7
2362.0,1280.0,257,63,19,7
2362.0,1280.0,257,63,20,7
2369.0,1279.0,257,63,20,7
2374.0,1279.0,257,63,19,7
2380.0,1278.0,256,63,19,7
2385.0,1278.0,127,63,19,7
2385.0,1278.0,256,63,19,7
2388.0,1277.0,127,63,19,7
2395.0,1277.0,127,63,19,7
2395.0,1277.0,127,63,19,7
2400.0,1276.0,127,63,19,7
2400.0,1276.0,127,63,19,7
2406.0,1276.0,127,63,19,7
2409.0,1276.0,127,63,19,7
2409.0,1276.0,127,63,19,7
2418.0,1275.0,127,63,19,7
2421.0,1275.0,127,63,19,7
2421.0,1275.0,127,63,19,7
2426.0,1275.0,127,63,19,7
2426.0,1275.0,126,63,19,7
2432.0,1274.0,126,63,19,7
2437.0,1274.0,126,63,19,7
2437.0,1274.0,126,63,19,7
2444.0,1273.0,126,63,19,7
2450.0,1273.0,126,63,19,7
2455.0,1272.0,125,63,19,7
2455.0,1272.0,125,63,19,7
2461.0,1272.0,125,63,19,7
2466.0,1271.0,124,62,19,7
2466.0,1271.0,124,62,19,7
2471.0,1271.0,124,62,19,7
2477.0,1271.0,124,62,19,7
2477.0,1271.0,124,62,19,7
2483.0,1270.0,124,62,20,7
2488.0,1270.0,124,62,19,7
2488.0,1270.0,124,62,20,7
2491.0,1270.0,124,62,19,7
2496.0,1269.0,124,61,19,7
2496.0,1269.0,124,61,20,7
2503.0,1269.0,123,61,19,7
2509.0,1269.0,124,62,20,7
2509.0,1269.0,123,61,19,7
2514.0,1268.0,123,62,19,7
2520.0,1268.0,123,61,19,7
2520.0,1268.0,122,61,19,7
2526.0,1268.0,122,61,19,7
2526.0,1268.0,122,61,19,7
2531.0,1268.0,122,61,19,7
2536.0,1268.0,121,61,19,7
2536.0,1268.0,121,60,19,7
2541.0,1268.0,121,60,19,7
2547.0,1267.0,121,60,19,7
2550.0,1267.0,121,60,19,7
2556.0,1267.0,121,60,19,7
2556.0,1267.0,121,60,19,7
2562.0,1267.0,120,60,19,7
2567.0,1267.0,121,60,19,7
2571.0,1267.0,120,60,19,7
2571.0,1267.0,120,60,19,7
2578.0,1267.0,120,60,19,7
2583.0,1267.0,120,60,19,7
2583.0,1267.0,120,60,19,7
2586.0,1267.0,120,60,19,7
2586.0,1267.0,120,60,19,7
2591.0,1267.0,120,60,19,7
2597.0,1267.0,120,60,19,7
2602.0,1266.0,120,60,19,7
2602.0,1266.0,120,60,19,7
2608.0,1266.0,119,60,19,7
2613.0,1266.0,119,59,19,7
2616.0,1266.0,119,59,19,7
2616.0,1266.0,119,59,19,7
2621.0,1266.0,119,59,19,7
2621.0,1266.0,118,59,19,7
2627.0,1266.0,118,59,19,7
2633.0,1266.0,118,59,19,7
2637.0,1266.0,118,59,19,7
2637.0,1266.0,118,59,19,7
2643.0,1266.0,118,59,19,7
2643.0,1266.0,118,59,19,7
2646.0,1266.0,257,59,19,7
2651.0,1266.0,271,58,19,7
2658.0,1266.0,273,58,19,7
2658.0,1266.0,273,58,19,7
2662.0,1266.0,273,58,19,7
2665.0,1266.0,273,58,19,7
2665.0,1266.0,273,58,19,7
2670.0,1266.0,273,58,19,7
2675.0,1266.0,272,57,19,7
2675.0,1266.0,272,58,19,7
2679.0,1266.0,271,57,19,7
2686.0,1266.0,271,57,19,7
2686.0,1266.0,271,57,19,7
2689.0,1266.0,271,57,19,7
2694.0,1266.0,271,57,18,7
2700.0,1266.0,271,57,19,7
2700.0,1266.0,271,57,18,7
2704.0,1266.0,270,57,19,7
2708.0,1266.0,270,57,19,7
2713.0,1266.0,270,57,18,7
2713.0,1266.0,270,57,19,7
2719.0,1266.0,270,57,19,7
2723.0,1266.0,270,57,18,7
2723.0,1266.0,270,57,18,7
2726.0,1267.0,269,57,19,7
2732.0,1267.0,269,57,19,7
2732.0,1267.0,269,57,19,7
2737.0,1267.0,268,57,18,7
2742.0,1267.0,268,56,18,7
2742.0,1267.0,268,56,19,7
2745.0,1268.0,268,57,18,7
2751.0,1268.0,268,57,18,7
2751.0,1268.0,268,56,18,7
2755.0,1268.0,268,57,18,7
2758.0,1268.0,268,56,18,7
2764.0,1269.0,267,56,18,7
2764.0,1269.0,267,56,18,7
2770.0,1269.0,267,56,18,7
2770.0,1269.0,267,56,18,7
2774.0,1269.0,266,56,17,7
2777.0,1269.0,266,56,18,7
2784.0,1269.0,266,56,17,7
2788.0,1269.0,265,56,18,7
2788.0,1269.0,266,56,18,7
2791.0,1270.0,265,56,18,7
2796.0,1270.0,265,56,18,7
2796.0,1270.0,265,56,18,7
2800.0,1270.0,265,56,18,6
2803.0,1271.0,265,56,18,7
2803.0,1271.0,264,56,18,7
2810.0,1271.0,264,56,18,7
2814.0,1271.0,264,56,18,6
2814.0,1271.0,263,56,18,6
2817.0,1272.0,263,56,18,7
2823.0,1272.0,263,56,18,7
2823.0,1272.0,263,56,18,6
2828.0,1273.0,263,56,18,7
2834.0,1273.0,263,56,18,7
2834.0,1273.0,263,55,18,7
2837.0,1273.0,263,55,18,7
2842.0,1273.0,263,55,18,7
2842.0,1273.0,263,55,18,7
2846.0,1273.0,263,55,18,7
2846.0,1273.0,263,55,18,7
2849.0,1273.0,263,55,18,6
2855.0,1274.0,262,55,17,6
2855.0,1274.0,262,55,18,6
2860.0,1274.0,262,55,17,7
2863.0,1275.0,262,55,18,7
2868.0,1275.0,262,56,17,6
2868.0,1275.0,262,56,18,7
2872.0,1275.0,261,56,18,6
2875.0,1276.0,260,56,17,6
2882.0,1276.0,260,56,17,6
2882.0,1276.0,260,56,17,6
2886.0,1276.0,260,56,18,6
2889.0,1277.0,260,56,17,6
2889.0,1277.0,259,56,17,7
2895.0,1277.0,260,56,18,7
2899.0,1278.0,259,56,17,6
2899.0,1278.0,259,56,17,7
2902.0,1278.0,259,56,17,6
2908.0,1278.0,259,56,17,6
2912.0,1278.0,259,56,18,7
2912.0,1278.0,259,56,17,6
2915.0,1278.0,259,56,17,6
2921.0,1279.0,259,56,17,6
2921.0,1279.0,259,56,17,6
2925.0,1279.0,258,56,17,6
2929.0,1279.0,258,55,17,7
2929.0,1279.0,258,55,17,6
2934.0,1280.0,258,55,17,6
2939.0,1280.0,257,55,17,6
2944.0,1280.0,258,55,18,6
2944.0,1280.0,259,55,17,6
2947.0,1281.0,259,55,17,6
2953.0,1281.0,259,55,18,6
2958.0,1281.0,259,55,18,6
2961.0,1282.0,258,55,17,6
2961.0,1282.0,259,55,18,6
2966.0,1282.0,258,55,17,6
2971.0,1282.0,258,54,17,6
2971.0,1282.0,258,55,18,6
2974.0,1282.0,257,54,17,6
2980.0,1282.0,257,55,17,6
2980.0,1282.0,257,54,17,6
2985.0,1282.0,257,54,17,6
2990.0,1283.0,256,54,17,6
2993.0,1283.0,257,54,18,6
2993.0,1283.0,257,54,17,6
2999.0,1283.0,257,54,17,6
2999.0,1283.0,127,54,17,6
3004.0,1284.0,127,54,17,6
3007.0,1284.0,127,55,17,6
3012.0,1284.0,127,60,17,6
3012.0,1284.0,127,63,17,6
3017.0,1285.0,127,63,17,6
3023.0,1285.0,127,63,17,6
3023.0,1285.0,127,63,17,6
3026.0,1285.0,127,63,17,6
3031.0,1286.0,127,63,17,6
3031.0,1286.0,127,63,17,6
3036.0,1286.0,127,63,17,6
3041.0,1287.0,127,63,17,6
3041.0,1287.0,126,63,17,6
3046.0,1287.0,126,63,17,6
3049.0,1287.0,126,63,17,6
3049.0,1287.0,126,63,17,6
3055.0,1288.0,126,63,17,6
3059.0,1288.0,126,63,17,6
3059.0,1288.0,125,63,17,6
3065.0,1288.0,125,63,17,6
3068.0,1289.0,125,63,17,6
3068.0,1289.0,125,63,17,6
3073.0,1289.0,124,63,17,6
3080.0,1290.0,124,63,17,6
3080.0,1290.0,124,63,17,6
3084.0,1290.0,124,62,17,6
3087.0,1290.0,124,62,17,6
3093.0,1290.0,124,63,17,6
3098.0,1290.0,124,62,17,6
3102.0,1290.0,124,62,17,6
3102.0,1290.0,124,62,17,6
3109.0,1291.0,124,62,17,6
3112.0,1291.0,123,62,17,6
3112.0,1291.0,123,62,17,6
3117.0,1292.0,123,62,17,6
3123.0,1292.0,123,62,17,6
3127.0,1292.0,123,62,17,6
3127.0,1292.0,123,62,17,6
3134.0,1293.0,122,61,17,6
3137.0,1293.0,122,61,17,5
3137.0,1293.0,121,61,17,6
3142.0,1294.0,121,61,17,5
3146.0,1294.0,121,61,17,6
3146.0,1294.0,121,61,17,6
3151.0,1295.0,121,61,17,6
3154.0,1295.0,121,60,17,6
3154.0,1295.0,121,60,17,6
3159.0,1295.0,121,61,17,6
3166.0,1296.0,120,60,17,5
3166.0,1296.0,120,61,17,6
3170.0,1296.0,120,62,17,6
3174.0,1297.0,120,62,17,6
3174.0,1297.0,120,62,17,6
3180.0,1297.0,120,62,17,6
3180.0,1297.0,120,62,17,6
3183.0,1297.0,120,62,17,6
3183.0,1297.0,120,61,17,6
3188.0,1298.0,120,61,17,6
3188.0,1298.0,119,61,16,7
3191.0,1298.0,119,61,16,7
3191.0,1298.0,120,61,17,6
3197.0,1299.0,119,61,16,6
3202.0,1299.0,119,61,17,7
3202.0,1299.0,119,60,16,6
3205.0,1299.0,119,60,17,7
3211.0,1299.0,119,60,16,6
3217.0,1299.0,118,60,16,6
3217.0,1299.0,118,60,17,6
3220.0,1300.0,119,60,16,7
3225.0,1300.0,118,60,17,6
3225.0,1300.0,118,60,16,6
3228.0,1300.0,118,60,16,7
3233.0,1301.0,117,60,17,7
3233.0,1301.0,119,60,17,7
3236.0,1301.0,123,60,17,6
3243.0,1302.0,123,60,17,6
3243.0,1302.0,123,60,17,6
3246.0,1302.0,123,60,17,6
3251.0,1303.0,123,60,17,6
3251.0,1303.0,123,60,17,7
3254.0,1303.0,123,60,17,7
3259.0,1304.0,122,59,16,6
3262.0,1304.0,122,59,16,6
3262.0,1304.0,122,59,17,6
3267.0,1304.0,121,59,16,6
3267.0,1304.0,121,59,17,6
3271.0,1305.0,121,59,17,6
3275.0,1305.0,121,59,16,6
3275.0,1305.0,121,59,17,6
3279.0,1305.0,121,59,16,6
3283.0,1305.0,121,59,17,6
3283.0,1305.0,120,59,16,6
3286.0,1306.0,121,58,16,0
3292.0,1306.0,103,80,17,5
3295.0,1307.0,103,80,17,4
3300.0,1307.0,103,80,17,4
3300.0,1307.0,103,79,17,5
3302.0,1308.0,103,79,17,4
3307.0,1308.0,103,79,17,4
3307.0,1308.0,102,79,17,4
3310.0,1308.0,102,79,17,4
3316.0,1308.0,102,79,17,4
3316.0,1308.0,102,79,17,4
3318.0,1309.0,102,79,16,5
3322.0,1309.0,102,79,16,4
3322.0,1309.0,102,79,16,4
3325.0,1310.0,101,79,16,4
3329.0,1310.0,101,79,16,4
3329.0,1310.0,101,79,17,4
3332.0,1311.0,102,79,17,4
3335.0,1311.0,101,78,16,4
3335.0,1311.0,100,78,16,4
3340.0,1311.0,100,78,16,4
3342.0,1311.0,100,78,17,5
3342.0,1311.0,100,78,17,4
3346.0,1312.0,100,78,17,5
3350.0,1313.0,100,78,17,5
3350.0,1313.0,100,78,17,4
3352.0,1313.0,100,78,17,4
3352.0,1313.0,99,78,17,4
3356.0,1314.0,99,78,17,4
3360.0,1314.0,99,77,17,4
3360.0,1314.0,99,77,17,5
3362.0,1315.0,99,77,17,4
3364.0,1315.0,99,77,16,4
3368.0,1315.0,99,77,17,4
3368.0,1315.0,99,76,16,4
3371.0,1316.0,99,77,16,4
3374.0,1316.0,99,77,17,4
3374.0,1316.0,99,76,17,4
3376.0,1317.0,99,76,17,4
3376.0,1317.0,99,76,17,4
3378.0,1317.0,99,76,17,4
3382.0,1318.0,98,76,17,4
3384.0,1318.0,98,76,17,4
3384.0,1318.0,98,76,16,4
3388.0,1319.0,98,76,17,4
3388.0,1319.0,97,76,16,4
3390.0,1319.0,98,76,17,4
3393.0,1319.0,97,76,16,4
3393.0,1319.0,97,76,16,4
3395.0,1320.0,97,76,16,4
3395.0,1320.0,97,75,16,4
3397.0,1320.0,97,75,16,4
3399.0,1321.0,97,75,17,4
3401.0,1321.0,97,75,16,4
3401.0,1321.0,97,75,16,4
3405.0,1322.0,97,75,16,4
3405.0,1322.0,96,75,16,4
3406.0,1322.0,96,75,16,4
3409.0,1322.0,96,75,16,4
3409.0,1322.0,96,75,15,4
3411.0,1323.0,96,75,16,4
3412.0,1323.0,96,74,16,4
3415.0,1324.0,96,74,16,4
3415.0,1324.0,96,74,15,4
3417.0,1324.0,96,74,16,4
3419.0,1324.0,96,74,15,4
3419.0,1324.0,96,73,15,4
3422.0,1325.0,95,73,16,4
3422.0,1325.0,96,74,17,4
3424.0,1325.0,96,74,17,4
3425.0,1326.0,103,73,17,4
3427.0,1326.0,103,73,17,4
3427.0,1326.0,103,73,17,4
3428.0,1326.0,103,73,17,4
3430.0,1326.0,103,73,17,4
3432.0,1327.0,103,73,17,4
3432.0,1327.0,103,73,17,3
3433.0,1327.0,103,73,17,4
3435.0,1328.0,103,72,17,4
3435.0,1328.0,103,72,17,4
3437.0,1328.0,103,73,17,4
3437.0,1328.0,103,71,17,4
3438.0,1328.0,103,71,17,4
3438.0,1328.0,103,71,17,4
3440.0,1329.0,103,72,17,4
3440.0,1329.0,103,71,17,3
3442.0,1330.0,103,71,17,4
3442.0,1330.0,102,71,16,4
3442.0,1330.0,102,71,17,4
3444.0,1330.0,103,71,17,3
3446.0,1330.0,102,71,17,4
3446.0,1331.0,102,71,17,4
3446.0,1331.0,102,71,17,4
3448.0,1331.0,102,71,17,4
3448.0,1331.0,102,71,17,4
3449.0,1332.0,102,71,17,4
3450.0,1332.0,101,71,17,4
3450.0,1332.0,101,71,17,4
3451.0,1332.0,101,71,16,4
3452.0,1332.0,101,71,16,4
3452.0,1332.0,101,71,17,3
3453.0,1333.0,100,71,17,3
3454.0,1333.0,100,71,17,4
3455.0,1334.0,100,71,16,3
3456.0,1334.0,100,71,16,3
3457.0,1334.0,99,71,16,3
3458.0,1334.0,100,71,16,3
3459.0,1335.0,99,71,16,4
3460.0,1335.0,99,70,16,3
3461.0,1335.0,99,70,16,3
3462.0,1336.0,99,71,16,3
3462.0,1336.0,99,70,16,4
3463.0,1337.0,99,70,16,3
3464.0,1337.0,99,70,17,4
3464.0,1337.0,99,70,17,4
3466.0,1338.0,99,70,16,4
3466.0,1338.0,99,70,16,3
3466.0,1338.0,99,70,17,3
3467.0,1338.0,99,70,17,4
3467.0,1339.0,99,69,16,3
3468.0,1339.0,99,70,16,3
3469.0,1339.0,99,70,16,4
3469.0,1339.0,99,69,16,3
3470.0,1340.0,99,69,16,3
3470.0,1340.0,99,68,17,3
3471.0,1341.0,99,68,16,3
3471.0,1341.0,99,69,16,4
3471.0,1341.0,99,69,16,3
3471.0,1341.0,99,69,16,4
3472.0,1342.0,98,68,16,3
3472.0,1342.0,98,68,16,3
3472.0,1342.0,98,68,16,3
3472.0,1342.0,98,68,16,3
3472.0,1342.0,97,68,16,3
3472.0,1342.0,97,68,16,4
3472.0,1342.0,97,68,15,4
3473.0,1342.0,97,68,16,3
3473.0,1342.0,97,68,15,3
3473.0,1342.0,97,67,15,3
3473.0,1343.0,97,69,16,3
3473.0,1343.0,97,69,16,3
3473.0,1343.0,97,68,15,3
3473.0,1343.0,96,68,15,3
3473.0,1343.0,96,68,16,3
3473.0,1343.0,96,68,15,3
3473.0,1343.0,96,68,16,4
3473.0,1343.0,96,68,15,3
3473.0,1343.0,96,68,15,3
3473.0,1343.0,96,68,15,3
3473.0,1343.0,96,68,16,4
3473.0,1343.0,96,67,15,4
3473.0,1343.0,96,68,15,3
3473.0,1344.0,96,67,15,4
3473.0,1344.0,95,67,15,4
3473.0,1344.0,95,67,15,3
3473.0,1344.0,95,67,15,3
3473.0,1344.0,95,67,15,3
3473.0,1344.0,95,67,15,4
3473.0,1344.0,95,67,15,3
3473.0,1344.0,95,67,15,3
3473.0,1345.0,95,67,15,3
3473.0,1345.0,95,67,15,3
3473.0,1345.0,95,67,15,3
3473.0,1345.0,96,67,15,4
3473.0,1345.0,97,67,15,3
3473.0,1345.0,96,67,15,3
3473.0,1345.0,96,67,15,3
3473.0,1345.0,96,67,16,4
3473.0,1345.0,96,66,15,3
3473.0,1345.0,96,67,15,3
3473.0,1345.0,96,66,15,3
3472.0,1345.0,96,66,15,3
3472.0,1345.0,96,66,15,3
3472.0,1345.0,96,66,15,3
3472.0,1345.0,96,66,15,3
3472.0,1345.0,96,66,15,3
3472.0,1345.0,96,65,15,3
3472.0,1346.0,95,65,15,3
3472.0,1346.0,95,65,15,3
3472.0,1346.0,95,65,15,3
3471.0,1346.0,95,65,15,3
3471.0,1346.0,95,65,15,3
3471.0,1346.0,95,65,15,3
3471.0,1346.0,94,65,15,3
3471.0,1346.0,94,65,15,3
3471.0,1346.0,94,66,15,3
3471.0,1346.0,94,67,15,3
3470.0,1346.0,94,66,15,3
3470.0,1346.0,94,66,15,3
3470.0,1346.0,94,66,15,3
3470.0,1346.0,94,66,15,3
3470.0,1346.0,94,65,15,3
3470.0,1346.0,94,65,15,3
3470.0,1346.0,94,65,15,3
3469.0,1347.0,93,65,15,3
3468.0,1347.0,93,65,15,3
3468.0,1347.0,93,65,15,3
3468.0,1347.0,93,65,15,3
3468.0,1347.0,92,65,15,3
3467.0,1347.0,93,65,15,3
3467.0,1347.0,92,65,15,3
3467.0,1347.0,92,65,15,3
3467.0,1347.0,92,65,15,3
3467.0,1347.0,92,65,15,3
3466.0,1347.0,92,65,15,3
3466.0,1347.0,92,65,15,3
3466.0,1347.0,92,64,15,3
3466.0,1347.0,92,65,15,3
3466.0,1347.0,94,64,15,3
3465.0,1347.0,99,64,15,3
3465.0,1347.0,99,64,15,3
3464.0,1347.0,99,63,15,3
3464.0,1347.0,99,63,15,3
3464.0,1347.0,99,63,15,3
3464.0,1347.0,99,63,15,3
3463.0,1347.0,99,63,15,3
3463.0,1347.0,99,63,15,3
3463.0,1347.0,98,63,15,3
3463.0,1347.0,98,63,15,3
3463.0,1347.0,98,63,15,3
3462.0,1347.0,98,63,15,3
3462.0,1347.0,98,63,15,3
3462.0,1347.0,97,63,15,3
3461.0,1347.0,97,63,15,3
3461.0,1347.0,97,63,15,3
3460.0,1347.0,97,63,15,3
3460.0,1347.0,97,63,15,3
3460.0,1347.0,97,63,15,3
3459.0,1347.0,97,63,15,3
3459.0,1347.0,97,63,15,3
3459.0,1347.0,97,71,15,3
3459.0,1347.0,96,76,15,3
3458.0,1347.0,97,79,15,3
3457.0,1347.0,96,79,15,3
3456.0,1347.0,96,78,15,3
3456.0,1347.0,96,78,15,3
3456.0,1347.0,96,78,15,3
3455.0,1347.0,96,78,15,3
3455.0,1347.0,96,78,15,3
3454.0,1347.0,96,78,15,3
3453.0,1347.0,96,78,15,3
3453.0,1347.0,96,78,15,3
3453.0,1347.0,96,77,15,3
3452.0,1347.0,96,78,15,3
3452.0,1347.0,95,77,15,3
3451.0,1347.0,95,77,15,3
3451.0,1347.0,95,76,15,3
3450.0,1347.0,95,77,15,3
3449.0,1347.0,95,76,15,3
3449.0,1347.0,94,76,15,3
3449.0,1347.0,95,76,15,3
3448.0,1347.0,95,76,15,3
3448.0,1347.0,94,76,15,3
3448.0,1347.0,94,76,15,3
3446.0,1347.0,94,76,15,3
3446.0,1347.0,94,76,15,3
3445.0,1347.0,94,76,15,3
3444.0,1347.0,94,76,15,3
3444.0,1347.0,94,76,15,3
3443.0,1347.0,94,76,15,3
3442.0,1347.0,94,76,15,3
3442.0,1347.0,93,76,15,3
3441.0,1347.0,93,76,15,3
3440.0,1347.0,93,76,15,3
3440.0,1347.0,93,76,15,3
3440.0,1347.0,93,75,15,3
3438.0,1347.0,92,75,15,3
3437.0,1347.0,92,75,15,3
3437.0,1347.0,92,75,15,3
3437.0,1347.0,92,75,15,3
3435.0,1347.0,92,75,15,3
3435.0,1347.0,92,75,15,3
3433.0,1347.0,92,74,15,3
3433.0,1347.0,92,74,15,3
3432.0,1347.0,92,74,15,3
3432.0,1347.0,92,74,15,3
3429.0,1346.0,92,74,15,3
3429.0,1346.0,92,74,15,3
3428.0,1346.0,92,75,15,3
3428.0,1346.0,91,75,15,3
3426.0,1346.0,91,75,15,3
3426.0,1346.0,91,74,15,3
3424.0,1346.0,91,75,15,3
3424.0,1346.0,91,74,15,3
3422.0,1346.0,91,75,15,3
3422.0,1346.0,91,74,15,3
3422.0,1346.0,91,74,15,3
3420.0,1345.0,91,73,15,3
3420.0,1345.0,90,73,15,3
3419.0,1345.0,90,73,15,3
3418.0,1345.0,89,73,15,3
3418.0,1345.0,89,73,15,3
3415.0,1345.0,89,73,15,3
3415.0,1345.0,90,73,14,3
3414.0,1344.0,89,73,15,3
3413.0,1344.0,89,73,15,3
3412.0,1344.0,89,73,14,3
3412.0,1344.0,89,73,15,3
3410.0,1344.0,89,73,14,3
3408.0,1344.0,89,72,15,3
3408.0,1344.0,89,73,15,3
3406.0,1343.0,92,72,15,3
3405.0,1343.0,94,71,15,3
3405.0,1343.0,96,72,15,3
3404.0,1343.0,96,71,15,3
3402.0,1342.0,95,71,15,3
3402.0,1342.0,95,71,15,3
3400.0,1342.0,95,71,15,3
3398.0,1342.0,95,71,15,3
3398.0,1342.0,95,71,15,3
3396.0,1342.0,94,71,15,3
3396.0,1342.0,95,71,15,3
3396.0,1342.0,94,71,15,3
3394.0,1341.0,94,71,15,3
3391.0,1341.0,94,71,15,3
3390.0,1340.0,94,71,15,3
3390.0,1340.0,94,71,15,3
3388.0,1340.0,94,71,15,3
3385.0,1340.0,94,71,15,3
3383.0,1340.0,94,71,15,3
3383.0,1340.0,93,71,15,3
3383.0,1340.0,93,71,15,3
3381.0,1339.0,93,71,15,3
3381.0,1339.0,93,71,15,3
3378.0,1339.0,93,71,15,3
3376.0,1338.0,93,71,15,3
3376.0,1338.0,93,71,15,3
3374.0,1337.0,93,71,14,3
3372.0,1337.0,92,71,15,3
3372.0,1337.0,92,70,14,3
3370.0,1337.0,92,71,15,3
3368.0,1337.0,92,70,14,3
3365.0,1336.0,92,70,14,3
3365.0,1336.0,92,70,15,3
3362.0,1336.0,92,70,14,3
3362.0,1336.0,92,70,14,3
3360.0,1335.0,92,70,14,3
3358.0,1334.0,92,70,15,3
3356.0,1334.0,92,70,15,3
3354.0,1334.0,91,69,14,3
3354.0,1334.0,91,69,14,3
3352.0,1334.0,91,69,14,3
3352.0,1334.0,91,69,14,3
3349.0,1333.0,91,70,14,3
3347.0,1332.0,91,69,15,3
3347.0,1332.0,103,69,15,3
3345.0,1332.0,268,69,15,3
3343.0,1332.0,289,69,15,3
3343.0,1332.0,295,68,15,3
3341.0,1331.0,295,68,15,3
3338.0,1331.0,295,68,15,3
3338.0,1331.0,295,68,15,3
3336.0,1330.0,294,68,15,3
3332.0,1329.0,294,68,15,3
3332.0,1329.0,294,68,15,3
3330.0,1328.0,292,68,15,3
3327.0,1328.0,292,68,15,3
3324.0,1328.0,292,67,15,3
3324.0,1328.0,291,67,15,3
3322.0,1327.0,292,68,15,3
3319.0,1326.0,291,67,15,3
3319.0,1326.0,291,67,15,3
3317.0,1326.0,291,67,15,3
3315.0,1326.0,291,67,15,3
3315.0,1326.0,291,67,15,3
3311.0,1325.0,291,67,15,3
3311.0,1325.0,290,67,15,3
3308.0,1324.0,289,67,15,3
3306.0,1323.0,289,67,15,3
3306.0,1323.0,289,67,15,3
3304.0,1323.0,289,67,15,3
3301.0,1322.0,289,67,15,3
3301.0,1322.0,289,67,15,3
3297.0,1322.0,288,67,15,3
3294.0,1321.0,288,67,15,3
3294.0,1321.0,287,67,15,3
3292.0,1320.0,287,67,15,3
3287.0,1319.0,287,67,15,3
3285.0,1319.0,287,67,15,3
3285.0,1319.0,287,67,14,3
3282.0,1318.0,287,67,15,3
3282.0,1318.0,287,67,15,3
3279.0,1317.0,287,67,14,3
3275.0,1316.0,287,67,15,3
3272.0,1315.0,286,67,15,3
3272.0,1315.0,286,66,15,3
3270.0,1315.0,286,67,14,3
3266.0,1314.0,286,67,14,3
3266.0,1314.0,286,66,15,3
3263.0,1313.0,285,66,14,3
3261.0,1312.0,285,66,14,3
3261.0,1312.0,285,65,15,3
3256.0,1312.0,284,66,15,3
3254.0,1311.0,284,65,16,3
3254.0,1311.0,284,65,16,3
3251.0,1310.0,284,65,17,3
3247.0,1309.0,284,65,16,3
3247.0,1309.0,283,65,16,3
3244.0,1308.0,284,65,16,3
3241.0,1308.0,283,65,16,3
3241.0,1308.0,283,65,16,3
3237.0,1306.0,283,65,16,2
3234.0,1305.0,283,65,16,3
3234.0,1305.0,282,65,16,3
3231.0,1304.0,283,65,16,3
3228.0,1304.0,282,65,16,2
3225.0,1303.0,281,65,16,3
3225.0,1303.0,281,64,16,3
3222.0,1302.0,281,64,15,3
3218.0,1301.0,281,64,15,3
3218.0,1301.0,281,63,16,3
3215.0,1300.0,280,64,16,3
3210.0,1299.0,280,63,15,2
3210.0,1299.0,280,64,16,3
3210.0,1299.0,280,63,16,3
3208.0,1299.0,280,65,16,3
3208.0,1299.0,280,73,16,3
3208.0,1299.0,280,75,15,3
3203.0,1297.0,280,76,16,3
3200.0,1296.0,280,75,15,3
3200.0,1296.0,280,75,16,3
3196.0,1295.0,279,75,15,3
3193.0,1295.0,279,75,16,3
3189.0,1293.0,278,75,15,3
3189.0,1293.0,278,74,15,3
3186.0,1292.0,278,75,15,3
3181.0,1291.0,278,75,15,3
3178.0,1290.0,278,74,15,3
3178.0,1290.0,278,74,15,2
3175.0,1289.0,278,73,15,2
3172.0,1288.0,278,73,15,3
3172.0,1288.0,277,73,15,3
3169.0,1287.0,276,73,15,2
3163.0,1286.0,276,73,15,3
3161.0,1285.0,276,73,15,3
3161.0,1285.0,276,73,15,3
3156.0,1284.0,276,73,15,3
3153.0,1283.0,276,73,15,3
3153.0,1283.0,275,73,17,3
3149.0,1282.0,275,72,18,3
3149.0,1282.0,275,72,19,3
3146.0,1281.0,275,72,19,2
3140.0,1280.0,275,72,19,3
3137.0,1279.0,275,71,19,3
3137.0,1279.0,275,72,19,2
3133.0,1277.0,275,71,19,2
3130.0,1276.0,274,71,19,2
3130.0,1276.0,274,71,19,2
3127.0,1276.0,274,71,19,2
3122.0,1274.0,273,71,18,2
3122.0,1274.0,273,71,19,3
3119.0,1273.0,273,71,19,2
3113.0,1271.0,273,71,19,3
3110.0,1270.0,273,71,18,3
3110.0,1270.0,272,71,19,3
3106.0,1269.0,272,71,19,2
3101.0,1268.0,272,71,19,3
3101.0,1268.0,272,71,18,3
3099.0,1267.0,272,71,18,2
3094.0,1265.0,271,71,18,2
3089.0,1263.0,271,71,18,3
3089.0,1263.0,271,71,19,3
3086.0,1263.0,271,71,18,2
3086.0,1263.0,271,71,18,2
3081.0,1261.0,271,71,18,3
3078.0,1260.0,271,71,18,3
3078.0,1260.0,271,71,18,2
3073.0,1258.0,270,70,18,2
3073.0,1258.0,271,71,18,2
3069.0,1257.0,270,71,18,3
3064.0,1256.0,270,71,18,2
3064.0,1256.0,270,71,18,2
3061.0,1255.0,270,71,18,2
3057.0,1254.0,270,70,18,2
3057.0,1254.0,269,70,17,2
3052.0,1252.0,270,70,18,2
3049.0,1251.0,269,70,17,2
3049.0,1251.0,269,70,18,3
3043.0,1249.0,268,70,18,2
3040.0,1248.0,268,70,17,2
3037.0,1247.0,268,70,17,2
3037.0,1247.0,268,70,18,2
3031.0,1245.0,268,70,18,3
3025.0,1243.0,268,69,17,2
3025.0,1243.0,268,69,18,2
3023.0,1242.0,290,69,19,2
3018.0,1241.0,295,69,19,2
3018.0,1241.0,295,68,19,3
3013.0,1239.0,295,68,18,2
3013.0,1239.0,295,68,19,3
3010.0,1238.0,295,68,19,2
3005.0,1236.0,295,68,19,3
3000.0,1235.0,295,68,18,3
3000.0,1235.0,295,68,19,2
2997.0,1234.0,294,68,19,3
2991.0,1232.0,295,68,18,2
2991.0,1232.0,294,68,19,2
2987.0,1231.0,294,67,18,2
2984.0,1229.0,293,67,19,2
2984.0,1229.0,293,67,18,2
2978.0,1227.0,292,67,18,3
2975.0,1226.0,292,67,19,2
2969.0,1225.0,292,67,18,2
2969.0,1225.0,292,67,18,2
2963.0,1223.0,291,67,19,3
2960.0,1222.0,291,67,18,2
2960.0,1222.0,291,67,18,2
2954.0,1220.0,291,67,18,2
2951.0,1218.0,291,69,18,2
2951.0,1218.0,291,71,18,2
2948.0,1218.0,290,71,18,2
2942.0,1216.0,290,70,17,2
2942.0,1216.0,290,70,18,3
2936.0,1214.0,290,70,18,2
2932.0,1212.0,290,70,17,2
2932.0,1212.0,289,70,18,3
2929.0,1211.0,289,70,18,3
2923.0,1209.0,289,70,18,2
2920.0,1208.0,289,70,18,2
2920.0,1208.0,289,69,18,2
2914.0,1206.0,288,70,18,2
2914.0,1206.0,287,69,17,3
2910.0,1205.0,287,69,17,3
2904.0,1203.0,287,69,17,3
2904.0,1203.0,287,69,17,3
2899.0,1201.0,287,69,18,3
2894.0,1199.0,287,68,18,3
2889.0,1198.0,287,68,17,3
2889.0,1198.0,287,68,17,3
2857.0,1186.0,287,68,18,3
2738.0,1143.0,287,68,17,3
2738.0,1143.0,286,68,19,3
2738.0,1143.0,286,68,19,3
2738.0,1143.0,286,68,19,3
2738.0,1143.0,286,68,19,3
2738.0,1143.0,286,68,19,3
2738.0,1143.0,286,68,19,2
2738.0,1143.0,285,67,19,3
2738.0,1143.0,284,67,19,2
2738.0,1143.0,285,67,19,3
2738.0,1143.0,284,67,19,3
2738.0,1143.0,284,67,19,3
2738.0,1143.0,284,67,19,3
2738.0,1143.0,284,67,19,2
2738.0,1143.0,284,67,19,3
2738.0,1143.0,284,67,19,3
2738.0,1143.0,283,67,19,3
2738.0,1143.0,284,67,19,3
2738.0,1143.0,283,67,19,2
2738.0,1143.0,283,67,19,3
2738.0,1143.0,283,67,19,3
2738.0,1143.0,282,67,19,3
2738.0,1143.0,281,67,19,3
2738.0,1143.0,281,67,19,3
2738.0,1143.0,281,67,19,2
2738.0,1143.0,281,66,19,2
2738.0,1143.0,281,66,19,3
2738.0,1143.0,281,66,19,2
2738.0,1143.0,281,66,19,3
2738.0,1143.0,280,66,19,2
2738.0,1143.0,280,65,19,3
2738.0,1143.0,280,66,19,2
2738.0,1143.0,280,65,19,2
2738.0,1143.0,280,66,19,2
2738.0,1143.0,280,65,19,3
2738.0,1143.0,280,65,19,2
2738.0,1143.0,280,65,19,3
2738.0,1143.0,280,65,19,3
2738.0,1143.0,280,65,19,3
2738.0,1143.0,279,65,19,3
2692.0,1126.0,279,65,19,2
2676.0,1120.0,278,65,19,3
2676.0,1120.0,278,65,19,3
2676.0,1120.0,278,65,19,2
2676.0,1120.0,278,65,19,3
2676.0,1120.0,278,65,19,2
2676.0,1120.0,278,64,19,3
2670.0,1117.0,278,65,19,2
2670.0,1117.0,277,65,19,3
2664.0,1115.0,277,64,19,3
2659.0,1113.0,277,64,19,2
2659.0,1113.0,276,64,19,3
2654.0,1111.0,276,64,19,3
2648.0,1110.0,275,63,19,2
2648.0,1110.0,275,63,19,2
2642.0,1107.0,275,63,19,2
2638.0,1105.0,275,63,19,3
2632.0,1103.0,275,63,19,2
2632.0,1103.0,275,63,19,2
2626.0,1100.0,275,63,19,3
2620.0,1098.0,275,63,19,3
2616.0,1096.0,275,63,19,3
2616.0,1096.0,275,63,19,2
2610.0,1094.0,275,63,19,3
2604.0,1091.0,274,63,19,3
2604.0,1091.0,274,63,19,2
2600.0,1090.0,273,63,19,2
2594.0,1087.0,274,63,19,3
2588.0,1085.0,273,63,19,3
2588.0,1085.0,273,63,19,2
2584.0,1083.0,273,63,19,2
2580.0,1081.0,273,63,19,2
2574.0,1079.0,272,63,19,2
2570.0,1076.0,272,63,19,2
2564.0,1075.0,272,63,19,2
2558.0,1072.0,272,63,19,2
2554.0,1070.0,271,63,19,2
2548.0,1067.0,271,63,18,2
2542.0,1065.0,271,62,18,2
2536.0,1062.0,271,63,19,2
2536.0,1062.0,271,63,19,3
2531.0,1059.0,271,62,18,2
2522.0,1055.0,271,62,18,2
2522.0,1055.0,271,62,19,2
2522.0,1055.0,271,62,19,2
2518.0,1053.0,270,62,19,2
2512.0,1051.0,271,62,19,2
2512.0,1051.0,270,62,18,2
2506.0,1048.0,270,62,18,2
2506.0,1048.0,270,62,18,3
2506.0,1048.0,270,62,19,2
2501.0,1045.0,269,61,18,2
2496.0,1043.0,269,61,19,2
2496.0,1043.0,269,61,21,3
2492.0,1041.0,269,62,30,2
2488.0,1039.0,268,61,30,2
2488.0,1039.0,268,61,30,2
2482.0,1036.0,268,61,30,2
2477.0,1034.0,268,61,30,2
2471.0,1031.0,268,60,30,2
2471.0,1031.0,268,61,30,2
2467.0,1028.0,268,60,30,2
2467.0,1028.0,268,60,30,2
2463.0,1026.0,268,61,30,2
2457.0,1023.0,268,60,30,2
2453.0,1021.0,268,60,30,2
2453.0,1021.0,267,60,30,2
2449.0,1019.0,267,60,30,2
2444.0,1017.0,267,60,30,2
2444.0,1017.0,266,60,30,2
2438.0,1014.0,267,60,30,2
2438.0,1014.0,266,60,30,2
2433.0,1011.0,266,60,30,2
2433.0,1011.0,265,60,29,2
2433.0,1011.0,265,60,29,2
2433.0,1011.0,265,60,30,2
2426.0,1007.0,265,67,29,2
2426.0,1007.0,265,73,29,2
2420.0,1004.0,265,75,29,2
2420.0,1004.0,265,75,29,2
2416.0,1003.0,264,75,29,2
2416.0,1003.0,263,75,29,2
2412.0,1001.0,263,75,29,2
2412.0,1001.0,263,74,29,2
2406.0,998.0,263,74,29,2
2406.0,998.0,263,73,28,2
2403.0,996.0,263,73,28,2
2403.0,996.0,263,74,29,2
2403.0,996.0,263,74,29,2
2398.0,993.0,263,73,28,2
2398.0,993.0,263,73,29,2
2393.0,991.0,263,73,29,2
2393.0,991.0,263,73,29,2
2390.0,989.0,263,73,29,2
2384.0,986.0,263,73,29,2
2384.0,986.0,262,73,28,2
2382.0,984.0,262,73,29,2
2382.0,984.0,262,72,28,2
2376.0,982.0,262,73,28,3
2373.0,979.0,262,73,28,3
2373.0,979.0,262,72,28,2
2369.0,977.0,261,72,28,3
2363.0,974.0,261,71,28,3
2363.0,974.0,261,72,28,3
2360.0,972.0,260,71,28,3
2354.0,969.0,260,71,28,2
2354.0,969.0,260,71,28,3
2351.0,968.0,260,71,28,2
2346.0,965.0,260,71,28,2
2346.0,965.0,259,71,28,3
2344.0,963.0,259,71,28,3
2339.0,961.0,259,71,28,3
2339.0,961.0,259,71,28,2
2336.0,959.0,259,71,28,3
2331.0,955.0,259,71,28,2
2323.0,951.0,259,71,28,3
2323.0,951.0,259,71,28,2
2323.0,951.0,259,71,28,3
2319.0,949.0,259,71,28,2
2315.0,946.0,258,71,28,2
2315.0,946.0,258,71,28,2
2311.0,944.0,258,71,28,2
2308.0,942.0,257,71,28,2
2308.0,942.0,257,71,28,2
2303.0,939.0,258,72,28,3
2301.0,938.0,257,72,28,3
2301.0,938.0,257,71,28,3
2296.0,935.0,257,71,28,2
2292.0,932.0,257,71,28,2
2292.0,932.0,257,71,28,3
2290.0,931.0,256,71,27,2
2288.0,929.0,256,71,27,2
2288.0,929.0,127,71,27,3
2283.0,927.0,127,71,28,2
2279.0,924.0,127,71,27,3
2279.0,924.0,127,71,27,2
2277.0,922.0,127,71,27,2
2272.0,920.0,127,71,28,2
2272.0,920.0,127,71,27,2
2270.0,918.0,127,71,28,2
2266.0,916.0,127,71,28,2
2266.0,916.0,127,71,27,2
2263.0,914.0,127,71,27,2
2259.0,912.0,127,71,27,3
2257.0,910.0,127,71,27,2
2257.0,910.0,127,71,27,3
2255.0,909.0,126,71,27,3
2250.0,906.0,126,71,27,3
2248.0,905.0,126,71,27,3
2245.0,902.0,126,71,28,2
2245.0,902.0,126,70,28,3
2243.0,901.0,126,70,27,3
2238.0,898.0,126,70,27,3
2238.0,898.0,125,70,28,2
2236.0,896.0,126,70,27,2
2236.0,896.0,125,70,28,2
2234.0,895.0,125,70,27,3
2230.0,893.0,125,70,27,3
2227.0,890.0,124,70,27,2
2227.0,890.0,124,70,27,2
2224.0,888.0,124,69,27,3
2221.0,886.0,124,70,27,3
2219.0,884.0,124,70,27,3
2219.0,884.0,124,70,27,3
2216.0,882.0,124,69,27,2
2216.0,882.0,124,68,27,2
2214.0,881.0,123,69,27,3
2211.0,879.0,123,68,27,2
2208.0,877.0,123,69,27,3
2206.0,875.0,123,70,27,2
2204.0,874.0,123,71,27,3
2204.0,874.0,123,71,27,3
2202.0,872.0,123,71,27,3
2199.0,870.0,122,70,27,2
2196.0,868.0,123,70,27,2
2196.0,868.0,123,70,27,3
2193.0,866.0,121,70,26,2
2191.0,864.0,121,70,26,2
2191.0,864.0,121,70,26,2
2190.0,864.0,121,70,27,3
2190.0,864.0,121,70,26,2
2187.0,861.0,121,69,25,2
2185.0,860.0,121,69,26,2
2185.0,860.0,121,70,26,3
2182.0,857.0,121,70,26,3
2181.0,857.0,120,69,26,2
2181.0,857.0,120,68,26,2
2178.0,855.0,120,68,26,2
2176.0,853.0,120,69,25,2
2176.0,853.0,120,68,26,2
2173.0,851.0,120,68,26,2
2172.0,850.0,120,68,26,3
2172.0,850.0,120,68,25,2
2169.0,848.0,120,68,26,2
2169.0,848.0,120,68,25,2
2167.0,846.0,122,68,26,2
2166.0,845.0,122,68,25,2
2163.0,843.0,121,68,25,2
2163.0,843.0,121,67,26,2
2162.0,842.0,121,67,25,3
2160.0,841.0,121,67,25,2
2160.0,841.0,121,67,26,3
2157.0,838.0,121,67,25,2
2155.0,837.0,120,67,25,2
2155.0,837.0,120,67,25,2
2154.0,835.0,120,67,25,2
2152.0,834.0,120,67,25,2
2152.0,834.0,120,67,25,2
2150.0,832.0,120,67,25,3
2148.0,831.0,120,67,25,2
2148.0,831.0,120,67,25,2
2146.0,829.0,120,67,25,2
2146.0,829.0,120,67,25,2
2146.0,829.0,120,67,25,2
2144.0,827.0,120,67,25,3
2142.0,826.0,119,67,25,2
2142.0,826.0,119,67,25,2
2140.0,825.0,119,66,25,2
2138.0,823.0,119,66,25,4
2137.0,822.0,118,66,25,6
2137.0,822.0,118,66,25,6
2135.0,820.0,118,66,25,6
2134.0,819.0,118,65,25,6
2134.0,819.0,118,66,25,6
2133.0,819.0,118,65,24,6
2131.0,817.0,118,65,25,6
2131.0,817.0,117,65,24,6
2129.0,815.0,118,65,24,6
2128.0,814.0,117,65,25,6
2128.0,814.0,116,65,25,6
2126.0,813.0,117,65,24,6
2126.0,812.0,116,65,25,6
2126.0,812.0,116,65,24,5
2124.0,811.0,116,65,24,6
2122.0,810.0,116,65,24,6
2122.0,810.0,116,65,25,6
2121.0,808.0,115,65,25,6
2120.0,808.0,115,65,25,5
2120.0,808.0,115,64,25,6
2119.0,807.0,115,65,24,6
2119.0,807.0,115,64,25,6
2118.0,806.0,116,64,24,5
2117.0,805.0,116,64,25,6
2115.0,804.0,116,64,24,6
2115.0,804.0,116,63,24,6
2113.0,802.0,116,63,24,5
2112.0,801.0,115,63,24,5
2112.0,801.0,115,63,24,6
2111.0,800.0,115,63,24,6
2109.0,799.0,115,63,24,6
2109.0,799.0,115,63,24,5
2108.0,798.0,115,63,24,6
2108.0,798.0,115,63,24,6
2107.0,797.0,115,63,24,6
2106.0,797.0,115,63,24,6
2106.0,797.0,115,63,24,6
2106.0,795.0,115,63,24,6
2104.0,795.0,114,63,24,6
2104.0,795.0,114,63,24,5
2103.0,794.0,115,63,24,5
2103.0,794.0,114,63,24,6
2102.0,792.0,114,63,24,5
2101.0,792.0,114,65,24,6
2101.0,792.0,113,66,24,5
2100.0,791.0,113,66,24,5
2100.0,791.0,113,65,24,5
2098.0,789.0,113,65,24,5
2098.0,789.0,112,65,24,6
2097.0,789.0,113,65,24,5
2096.0,789.0,113,65,24,5
2096.0,789.0,112,65,24,5
2096.0,787.0,112,65,24,5
2094.0,787.0,112,65,24,5
2094.0,787.0,112,65,24,5
2093.0,786.0,112,65,24,5
2093.0,785.0,112,65,24,5
2093.0,785.0,112,65,24,5
2093.0,785.0,112,64,24,5
2093.0,785.0,112,64,24,5
2091.0,785.0,111,64,24,6
2091.0,785.0,111,64,24,5
2090.0,783.0,111,64,24,5
2090.0,783.0,111,63,24,5
2089.0,783.0,111,63,24,5
2089.0,783.0,111,63,24,5
2089.0,782.0,111,63,24,5
2088.0,782.0,110,63,24,5
2088.0,782.0,111,63,24,5
2088.0,782.0,110,63,24,5
2086.0,780.0,110,63,24,5
2086.0,780.0,110,63,24,5
2086.0,780.0,110,63,24,5
2086.0,780.0,110,63,24,4
2085.0,779.0,110,63,23,5
2085.0,779.0,109,63,23,5
2084.0,779.0,109,63,23,5
2083.0,779.0,109,63,24,4
2083.0,779.0,109,63,24,4
2083.0,778.0,109,63,24,5
2082.0,778.0,109,63,24,5
2082.0,778.0,109,63,24,5
2082.0,777.0,108,63,23,4
2082.0,777.0,109,63,23,5
2081.0,776.0,108,62,23,4
2081.0,776.0,108,63,23,4
2081.0,776.0,108,63,23,6
2080.0,776.0,108,63,23,6
2079.0,776.0,108,63,23,6
2079.0,775.0,108,63,23,6
2079.0,775.0,108,63,23,5
2078.0,775.0,108,63,23,5
2078.0,775.0,108,63,23,6
2078.0,775.0,108,62,23,5
2077.0,774.0,107,63,23,6
2077.0,774.0,107,63,23,6
2077.0,774.0,107,63,23,6
2077.0,774.0,107,63,23,6
2077.0,774.0,107,63,23,6
2076.0,774.0,107,62,22,6
2075.0,773.0,106,62,23,6
2075.0,773.0,106,62,23,6
2075.0,773.0,106,62,23,6
2075.0,772.0,106,62,23,6
2074.0,772.0,105,62,23,6
2074.0,772.0,105,62,23,6
2074.0,772.0,105,62,22,6
2074.0,772.0,105,62,23,6
2074.0,772.0,105,62,23,6
2073.0,772.0,105,62,22,6
2073.0,772.0,105,61,22,5
2073.0,772.0,105,61,23,6
2073.0,771.0,104,61,24,6
2072.0,771.0,105,61,24,6
2072.0,771.0,105,61,23,6
2072.0,771.0,107,61,24,6
2072.0,771.0,107,61,24,6
2072.0,771.0,106,60,23,6
2071.0,771.0,106,60,24,6
2071.0,771.0,105,61,23,6
2071.0,771.0,106,61,24,6
2070.0,770.0,105,60,24,6
2070.0,770.0,105,60,23,6
2070.0,770.0,105,60,24,6
2070.0,770.0,105,60,23,5
2070.0,770.0,105,60,23,5
2070.0,770.0,105,60,23,6
2070.0,770.0,105,60,23,5
2069.0,770.0,105,60,23,6
2069.0,770.0,104,60,23,6
2069.0,770.0,104,60,23,6
2069.0,770.0,103,60,23,6
2069.0,770.0,104,60,23,6
2069.0,770.0,103,60,23,5
2069.0,770.0,103,60,23,6
2069.0,770.0,103,60,23,5
2069.0,770.0,103,60,22,5
2069.0,770.0,103,60,22,6
2069.0,770.0,103,60,23,6
2069.0,770.0,103,59,23,5
2069.0,770.0,103,59,23,5
2069.0,770.0,103,60,23,6
2068.0,770.0,103,59,23,5
2068.0,770.0,103,59,23,6
2068.0,770.0,103,59,22,5
2068.0,770.0,103,59,23,5
2068.0,770.0,103,59,22,6
2068.0,770.0,103,59,23,6
2068.0,770.0,103,59,22,6
2068.0,770.0,102,59,23,6
2068.0,770.0,102,59,22,5
2068.0,770.0,102,58,23,6
2068.0,770.0,102,59,22,5
2068.0,770.0,102,58,23,6
2068.0,770.0,102,58,22,6
2068.0,770.0,102,58,22,6
2068.0,770.0,102,58,22,6
2068.0,770.0,102,58,22,5
2068.0,770.0,101,58,22,6
2068.0,770.0,102,57,22,5
2068.0,770.0,103,57,22,5
2068.0,770.0,103,58,22,6
2068.0,770.0,103,57,22,5
2068.0,770.0,103,57,22,6
2068.0,770.0,103,57,22,5
2068.0,770.0,103,57,22,5
2068.0,770.0,103,57,22,5
2068.0,770.0,103,57,22,6
2068.0,770.0,102,57,22,6
2068.0,770.0,102,57,22,6
2068.0,770.0,102,57,22,5
2068.0,770.0,102,57,22,5
2068.0,770.0,102,57,22,5
2068.0,770.0,102,57,22,5
2068.0,770.0,101,57,22,5
2068.0,770.0,102,57,22,5
2068.0,770.0,101,57,22,6
2068.0,770.0,102,56,22,5
2068.0,770.0,102,56,22,5
2068.0,770.0,100,56,22,5
2068.0,770.0,100,56,22,5
2068.0,770.0,100,56,22,5
2068.0,770.0,100,56,22,5
2068.0,770.0,100,56,21,5
2068.0,770.0,100,56,21,5
2068.0,770.0,100,56,21,4
2068.0,770.0,99,56,22,5
2068.0,770.0,100,56,22,5
2068.0,770.0,99,56,22,5
2068.0,770.0,99,56,22,5
2068.0,770.0,99,56,22,5
2068.0,771.0,99,56,21,5
2068.0,771.0,99,56,21,5
2068.0,771.0,99,56,21,5
2068.0,771.0,99,56,21,5
2068.0,771.0,99,56,21,5
2068.0,771.0,99,56,22,5
2068.0,772.0,99,56,21,5
2068.0,772.0,99,56,21,5
2068.0,772.0,99,56,21,4
2068.0,773.0,98,56,21,4
2068.0,773.0,98,56,21,5
2068.0,773.0,98,55,21,5
2068.0,773.0,98,56,21,5
2068.0,773.0,97,55,21,5
2068.0,773.0,100,55,20,5
2068.0,774.0,107,55,22,4
2068.0,774.0,112,55,21,5
2068.0,774.0,112,55,21,4
2068.0,774.0,112,55,21,4
2068.0,774.0,112,55,21,5
2068.0,775.0,112,55,21,4
2069.0,775.0,112,55,20,4
2069.0,775.0,112,55,21,5
2069.0,775.0,111,55,21,4
2069.0,775.0,111,55,21,4
2069.0,776.0,111,55,20,4
2069.0,777.0,111,55,21,5
2069.0,777.0,111,54,20,4
2069.0,777.0,110,54,20,4
2069.0,777.0,110,54,21,5
2069.0,777.0,110,54,20,4
2069.0,778.0,110,54,20,4
2069.0,778.0,110,54,21,5
2069.0,778.0,110,54,20,5
2070.0,778.0,110,54,20,4
2070.0,779.0,109,54,20,4
2070.0,779.0,109,54,20,4
2071.0,780.0,109,54,20,5
2071.0,780.0,109,54,20,4
2071.0,780.0,109,54,20,4
2071.0,780.0,108,54,20,5
2071.0,781.0,108,54,20,5
2071.0,781.0,108,54,20,4
2071.0,781.0,108,53,20,4
2071.0,782.0,108,53,20,5
2071.0,782.0,108,54,20,5
2072.0,782.0,108,54,20,6
2072.0,782.0,108,53,20,6
2072.0,783.0,108,53,20,6
2072.0,783.0,108,52,20,7
2072.0,783.0,108,52,20,7
2072.0,784.0,107,53,19,6
2072.0,785.0,107,53,20,7
2072.0,785.0,107,53,20,7
2072.0,785.0,107,52,20,7
2072.0,785.0,107,52,19,6
2073.0,786.0,107,52,19,7
2073.0,786.0,107,52,19,7
2073.0,786.0,107,52,19,7
2073.0,787.0,106,52,20,6
2073.0,787.0,105,52,20,7
2073.0,787.0,105,52,20,7
2074.0,788.0,106,52,20,7
2074.0,789.0,106,52,20,6
2074.0,789.0,106,51,20,7
2074.0,789.0,105,52,20,6
2074.0,790.0,105,51,19,6
2074.0,790.0,105,51,20,6
2074.0,790.0,105,51,19,7
2075.0,791.0,104,51,19,6
2075.0,791.0,105,51,19,7
2075.0,791.0,105,51,19,6
2076.0,793.0,105,51,19,7
2076.0,793.0,104,51,19,6
2076.0,793.0,103,51,19,6
2076.0,794.0,103,51,19,6
2076.0,794.0,103,51,19,6
2076.0,795.0,103,51,20,6
2077.0,795.0,103,51,19,6
2077.0,795.0,103,51,20,6
2077.0,796.0,103,51,19,7
2077.0,796.0,103,51,19,6
2077.0,797.0,103,63,19,6
2077.0,797.0,103,71,19,7
2078.0,799.0,103,75,19,6
2078.0,799.0,103,75,19,6
2078.0,799.0,103,75,19,6
2078.0,799.0,103,75,19,7
2079.0,800.0,103,74,19,6
2079.0,800.0,103,74,19,6
2079.0,800.0,103,74,19,6
2079.0,801.0,103,74,19,7
2079.0,801.0,102,74,19,6
2079.0,801.0,102,74,19,6
2080.0,802.0,102,73,19,6
2080.0,803.0,102,73,19,6
2080.0,803.0,102,73,19,6
2080.0,804.0,102,73,19,6
2081.0,805.0,102,73,19,6
2081.0,805.0,102,73,19,6
2082.0,806.0,101,73,19,6
2082.0,807.0,101,73,19,6
2082.0,807.0,100,72,19,6
2082.0,807.0,101,73,19,6
2082.0,808.0,100,72,19,6
2082.0,809.0,100,72,19,6
2082.0,809.0,100,71,19,6
2083.0,809.0,100,71,19,6
2083.0,809.0,100,72,19,6
2083.0,810.0,100,72,19,6
2084.0,811.0,99,71,19,6
2084.0,811.0,99,71,19,6
2084.0,812.0,99,71,19,6
2084.0,813.0,99,71,19,6
2084.0,813.0,99,71,19,6
2085.0,813.0,99,71,19,6
2085.0,815.0,99,71,19,6
2086.0,816.0,99,71,19,6
2086.0,816.0,99,71,19,6
2086.0,817.0,99,71,19,6
2087.0,818.0,99,71,19,6
2087.0,818.0,99,71,19,6
2087.0,818.0,99,71,19,6
2088.0,819.0,98,71,19,6
2088.0,819.0,98,71,19,6
2088.0,820.0,99,71,19,6400
2089.0,822.0,259,54,22,5
2089.0,823.0,259,53,22,5
2090.0,824.0,259,53,21,4
2090.0,824.0,259,53,21,4
2090.0,826.0,259,54,22,5
2090.0,826.0,259,53,22,4
2090.0,826.0,258,53,22,4
2092.0,828.0,257,53,22,5
2092.0,828.0,258,53,22,4
2092.0,829.0,257,54,22,5
2092.0,829.0,259,54,22,5
2092.0,829.0,259,54,22,4
2094.0,831.0,259,54,22,4
2094.0,832.0,259,53,22,4
2094.0,832.0,259,54,22,4
2094.0,833.0,259,54,22,4
2095.0,834.0,259,54,22,5
2095.0,836.0,259,53,22,5
2095.0,836.0,259,53,21,4
2095.0,836.0,259,53,21,4
2096.0,837.0,259,54,22,5
2096.0,837.0,259,53,22,4
2097.0,839.0,258,53,22,4
2097.0,839.0,257,53,22,5
2098.0,841.0,258,53,22,4
2098.0,841.0,257,53,22,5
2099.0,842.0,257,52,21,4
2099.0,842.0,257,52,21,5
2099.0,842.0,257,53,22,4
2099.0,844.0,259,53,22,4
2100.0,846.0,259,54,22,4
2100.0,846.0,259,54,22,4
2101.0,847.0,259,54,22,5
2101.0,847.0,259,53,22,5
2101.0,849.0,259,53,21,4
2101.0,849.0,259,53,21,4
2101.0,849.0,259,54,22,5
2103.0,851.0,259,53,22,4
2103.0,852.0,258,53,22,4
2103.0,852.0,257,53,22,5
2103.0,853.0,258,53,22,4
2104.0,855.0,257,53,22,5
2104.0,855.0,257,52,21,4
2104.0,855.0,257,52,21,5
2105.0,857.0,257,53,21,4
2105.0,857.0,257,55,22,4
2105.0,859.0,257,56,21,4
2106.0,860.0,257,56,21,4
2106.0,861.0,256,57,22,5
2106.0,861.0,127,56,22,4
2107.0,863.0,256,56,22,5
2108.0,866.0,127,56,22,4
2108.0,866.0,127,56,22,5
2108.0,867.0,127,56,21,4
2109.0,868.0,127,56,20,5
2109.0,868.0,127,56,21,5
2109.0,870.0,127,56,20,4
2110.0,871.0,127,56,21,5
2110.0,871.0,127,56,20,4
2110.0,872.0,127,56,21,5
2111.0,874.0,127,56,21,4
2111.0,875.0,127,56,21,4
2112.0,877.0,127,56,21,4
2112.0,877.0,126,56,20,4
2113.0,879.0,126,56,20,4
2113.0,879.0,126,56,21,4
2113.0,880.0,126,55,20,4
2113.0,882.0,126,56,21,4
2113.0,882.0,126,55,20,5
2113.0,884.0,126,56,20,4
2114.0,886.0,125,56,21,4
2115.0,888.0,125,56,20,4
2115.0,888.0,125,55,20,4
2115.0,890.0,125,55,21,4
2115.0,891.0,125,55,21,4
2115.0,891.0,124,55,20,4
2115.0,892.0,124,55,20,4
2116.0,894.0,124,55,20,4
2116.0,894.0,124,55,20,4
2117.0,897.0,124,55,20,4
2117.0,899.0,124,54,20,4
2117.0,899.0,124,55,20,4
2117.0,899.0,124,55,20,5
2117.0,901.0,124,54,20,4
2118.0,904.0,123,54,20,4
2118.0,904.0,123,54,20,4
2118.0,907.0,123,54,20,4
2118.0,907.0,123,54,20,4
2118.0,907.0,123,54,20,4
2119.0,908.0,123,54,20,4
2119.0,911.0,123,54,20,4
2119.0,911.0,122,55,20,4
2120.0,914.0,121,56,20,4
2120.0,915.0,121,58,20,4
2120.0,915.0,122,58,20,4
2120.0,916.0,121,57,20,4
2120.0,917.0,121,58,20,4
2120.0,917.0,121,57,20,4
2120.0,922.0,121,57,19,4
2120.0,923.0,121,57,19,4
2120.0,923.0,121,57,20,4
2120.0,924.0,120,57,20,4
2120.0,928.0,121,57,20,4
2120.0,928.0,120,57,19,4
2120.0,929.0,120,57,19,4
2121.0,931.0,120,57,19,4
2121.0,931.0,120,57,19,4
2121.0,932.0,120,57,19,4
2121.0,935.0,120,57,20,4
2121.0,935.0,120,56,20,4
2121.0,937.0,120,57,19,4
2121.0,938.0,120,56,19,4
2121.0,938.0,120,56,19,4
2121.0,941.0,120,57,19,4
2121.0,941.0,120,56,20,4
2122.0,943.0,120,56,19,4
2122.0,944.0,124,56,20,4
2122.0,944.0,127,56,20,4
2122.0,948.0,127,56,19,4
2122.0,949.0,127,56,19,4
2122.0,949.0,127,56,20,4
2122.0,951.0,127,56,20,4
2122.0,954.0,127,56,20,4
2122.0,954.0,127,56,20,4
2122.0,956.0,127,56,20,4
2122.0,957.0,127,56,19,4
2122.0,957.0,126,56,20,4
2122.0,960.0,126,56,19,4
2122.0,961.0,127,56,19,4
2122.0,961.0,126,56,19,4
2122.0,965.0,126,56,19,3
2122.0,967.0,126,56,19,4
2122.0,967.0,125,56,19,4
2122.0,968.0,125,56,20,4
2122.0,971.0,125,56,19,4
2122.0,973.0,125,56,19,3
2122.0,973.0,125,55,19,3
2123.0,976.0,124,55,19,4
2123.0,977.0,124,56,19,4
2123.0,979.0,124,56,19,3
2123.0,979.0,124,56,19,3
2123.0,982.0,124,56,19,3
2123.0,987.0,124,55,19,3
2123.0,987.0,124,55,19,4
2123.0,987.0,124,56,19,3
2123.0,988.0,124,55,19,4
2123.0,988.0,124,56,19,3
2123.0,991.0,123,55,19,3
2123.0,993.0,123,55,19,4
2123.0,993.0,123,55,19,3
2123.0,995.0,123,55,19,4
2123.0,997.0,123,55,19,3
2123.0,997.0,122,55,19,4
2123.0,1000.0,122,55,19,4
2123.0,1001.0,121,55,19,4
2123.0,1001.0,121,55,19,3
2123.0,1003.0,121,55,19,3
2123.0,1005.0,121,55,19,3
2124.0,1008.0,121,54,19,4
2124.0,1008.0,121,54,19,3
2124.0,1010.0,121,55,19,3
2124.0,1012.0,121,54,20,3
2124.0,1012.0,120,54,19,4
2124.0,1015.0,120,54,20,3
2125.0,1018.0,120,54,19,3
2125.0,1020.0,120,54,19,4
2125.0,1020.0,120,54,19,3
2125.0,1022.0,120,54,19,3
2125.0,1024.0,120,54,19,3
2125.0,1024.0,120,54,19,3
2126.0,1027.0,120,53,19,3
2126.0,1029.0,120,54,19,4
2126.0,1029.0,120,53,19,3
2126.0,1031.0,119,53,19,4
2126.0,1034.0,119,53,19,3
2126.0,1034.0,119,53,19,3
2126.0,1037.0,119,53,19,4
2126.0,1039.0,119,53,19,3
2126.0,1039.0,119,53,19,3
2127.0,1041.0,119,53,19,3
2127.0,1043.0,118,52,19,3
2127.0,1043.0,118,52,19,4
2127.0,1046.0,118,52,19,4
2128.0,1048.0,118,56,19,3
2128.0,1050.0,118,58,19,3
2128.0,1050.0,118,59,19,3
2128.0,1053.0,117,60,19,3
2128.0,1056.0,118,60,19,3
2128.0,1056.0,118,60,19,3
2128.0,1058.0,117,60,19,4
2129.0,1060.0,117,59,19,3
2129.0,1060.0,116,59,19,3
2129.0,1062.0,116,59,19,3
2129.0,1062.0,116,59,19,3
2130.0,1065.0,116,59,19,3
2130.0,1067.0,116,59,19,3
2130.0,1067.0,116,59,19,4
2131.0,1069.0,115,59,19,3
2131.0,1072.0,115,59,19,3
2131.0,1072.0,115,59,19,3
2131.0,1075.0,115,59,19,3
2131.0,1077.0,115,58,19,3
2131.0,1077.0,115,58,19,3
2132.0,1079.0,115,58,19,3
2132.0,1081.0,115,58,19,3
2132.0,1081.0,115,57,19,3
2133.0,1084.0,115,58,19,3
2133.0,1086.0,115,58,19,3
2133.0,1086.0,115,58,19,3
2134.0,1088.0,114,57,19,3
2134.0,1091.0,114,57,19,3
2134.0,1091.0,114,57,19,3
2134.0,1093.0,113,57,19,3
2134.0,1096.0,113,57,19,3
2134.0,1096.0,113,57,19,3
2135.0,1098.0,113,57,19,3
2135.0,1100.0,113,57,19,3
2135.0,1100.0,113,57,19,3
2136.0,1105.0,113,57,19,3
2137.0,1107.0,112,57,19,3
2137.0,1107.0,113,57,19,3
2137.0,1110.0,112,57,19,3
2138.0,1112.0,112,56,19,3
2138.0,1112.0,112,56,19,3
2138.0,1115.0,112,56,19,3
2138.0,1117.0,112,56,19,3
2138.0,1117.0,112,56,19,3
2139.0,1119.0,112,56,18,3
2139.0,1122.0,112,56,19,3
2139.0,1122.0,112,56,19,3
2140.0,1124.0,111,56,19,3
2140.0,1127.0,111,56,18,3
2140.0,1127.0,111,57,18,3
2140.0,1130.0,111,57,19,3
2140.0,1132.0,111,56,18,3
2140.0,1132.0,111,57,19,3
2141.0,1134.0,111,57,18,3
2142.0,1136.0,111,57,19,3
2142.0,1136.0,111,56,19,3
2142.0,1139.0,110,56,19,3
2143.0,1141.0,110,56,18,3
2143.0,1143.0,110,56,18,3
2143.0,1143.0,110,56,18,3
2143.0,1146.0,110,56,18,3
2144.0,1148.0,110,56,18,3
2144.0,1148.0,109,56,18,3
2144.0,1151.0,109,56,18,3
2145.0,1153.0,110,56,18,3
2145.0,1153.0,109,56,18,3
2146.0,1155.0,109,56,18,3
2146.0,1155.0,108,56,18,3
2146.0,1157.0,108,56,17,3
2146.0,1160.0,108,56,18,3
2148.0,1165.0,108,56,18,3
2148.0,1165.0,110,56,19,3
2148.0,1165.0,115,56,18,3
2149.0,1169.0,118,56,18,3
2149.0,1172.0,118,56,18,3
2149.0,1172.0,118,55,18,3
2149.0,1173.0,118,56,18,3
2150.0,1176.0,118,56,18,3
2150.0,1176.0,118,55,18,3
2151.0,1179.0,117,55,18,3
2152.0,1181.0,117,55,18,3
2152.0,1181.0,117,55,18,3
2152.0,1183.0,116,55,18,3
2152.0,1183.0,116,55,17,3
2153.0,1186.0,116,55,18,3
2153.0,1188.0,116,55,18,3
2153.0,1188.0,116,55,17,3
2154.0,1191.0,116,55,18,3
2154.0,1193.0,115,55,18,3
2154.0,1193.0,115,55,18,3
2155.0,1196.0,115,54,17,3
2155.0,1196.0,115,55,17,3
2156.0,1197.0,115,54,17,3
2157.0,1200.0,115,55,17,3
2157.0,1200.0,115,56,18,3
2157.0,1201.0,115,56,18,3
2158.0,1204.0,115,56,17,3
2159.0,1206.0,115,56,17,3
2159.0,1206.0,114,56,17,3
2160.0,1208.0,114,56,17,3
2160.0,1210.0,114,56,17,3
2161.0,1212.0,113,56,17,3
2161.0,1212.0,113,56,18,3
2162.0,1215.0,113,55,17,3
2163.0,1218.0,113,56,17,3
2163.0,1218.0,113,56,17,3
2164.0,1221.0,113,55,17,3
2164.0,1222.0,113,55,17,3
2164.0,1222.0,113,55,17,3
2166.0,1225.0,112,55,17,3
2166.0,1225.0,113,55,17,3
2166.0,1227.0,112,55,17,3
2167.0,1228.0,112,55,17,3
2167.0,1228.0,112,55,17,3
2168.0,1231.0,112,55,17,3
2169.0,1233.0,112,55,17,3
2169.0,1233.0,112,54,18,3
2170.0,1236.0,112,54,18,3
2171.0,1237.0,112,54,18,3
2171.0,1237.0,112,54,18,3
2172.0,1240.0,112,54,18,3
2172.0,1242.0,112,54,18,3
2172.0,1242.0,112,54,18,3
2174.0,1244.0,112,54,18,3
2175.0,1248.0,112,54,18,3
2175.0,1248.0,112,54,18,3
2176.0,1249.0,112,54,18,3
2178.0,1252.0,112,54,18,3
2178.0,1253.0,111,54,18,3
2178.0,1253.0,111,54,17,3
2180.0,1257.0,111,53,17,3
2180.0,1257.0,111,53,18,3
2180.0,1257.0,111,54,17,3
2182.0,1260.0,110,54,18,3
2182.0,1260.0,110,54,17,3
2182.0,1260.0,110,53,17,3
2183.0,1262.0,110,53,17,3
2184.0,1265.0,110,53,18,3
2184.0,1265.0,110,53,18,3
2186.0,1268.0,110,54,17,3
2186.0,1268.0,110,55,17,3
2186.0,1268.0,110,55,17,3
2187.0,1270.0,109,55,17,3
2187.0,1270.0,110,54,17,3
2189.0,1273.0,109,54,17,3
2190.0,1274.0,109,55,17,3
2190.0,1274.0,109,54,17,3
2191.0,1276.0,108,54,17,3
2192.0,1278.0,108,54,17,3
2192.0,1278.0,108,54,17,3
2194.0,1281.0,108,54,17,3
2195.0,1282.0,108,54,17,3
2195.0,1282.0,108,54,17,3
2197.0,1284.0,108,54,17,3
2198.0,1286.0,108,53,17,3
2198.0,1286.0,107,53,17,3
2200.0,1288.0,108,54,17,3
2200.0,1289.0,107,54,17,3
2200.0,1289.0,108,54,17,3
2202.0,1291.0,107,53,17,3
2203.0,1293.0,107,53,17,3
2203.0,1293.0,107,53,17,3
2205.0,1295.0,107,53,17,3
2205.0,1295.0,107,52,17,3
2206.0,1297.0,107,52,17,3
2208.0,1299.0,107,53,17,3
2208.0,1299.0,107,52,17,3
2208.0,1299.0,106,53,17,3
2210.0,1302.0,106,52,17,3
2210.0,1302.0,106,52,17,3
2211.0,1302.0,105,52,17,3
2212.0,1304.0,105,52,17,3
2212.0,1304.0,105,52,17,3
2214.0,1306.0,105,52,17,3
2215.0,1307.0,105,52,17,3
2215.0,1307.0,105,52,17,3
2217.0,1310.0,105,51,17,3
2218.0,1311.0,105,52,17,2
2218.0,1311.0,105,51,17,3
2220.0,1313.0,105,52,17,3
2222.0,1314.0,105,52,17,3
2222.0,1314.0,104,51,17,3
2223.0,1316.0,103,51,17,3
2225.0,1318.0,103,51,17,2
2225.0,1318.0,103,51,17,3
2227.0,1319.0,103,51,17,2
2228.0,1321.0,103,52,17,2
2228.0,1321.0,103,52,17,3
2231.0,1323.0,103,52,17,3
2232.0,1324.0,103,52,17,2
2232.0,1324.0,103,52,17,3
2233.0,1326.0,103,52,17,3
2236.0,1327.0,103,52,16,3
2237.0,1329.0,103,52,17,3
2237.0,1329.0,103,52,16,3
2239.0,1330.0,103,52,16,2
2241.0,1332.0,103,52,16,2
2241.0,1332.0,103,51,17,3
2242.0,1332.0,103,51,16,3
2244.0,1334.0,103,51,16,2
2246.0,1335.0,103,51,17,3
2246.0,1335.0,102,51,16,3
2248.0,1336.0,102,51,17,2
2250.0,1337.0,102,51,17,2
2250.0,1337.0,102,51,16,2
2252.0,1339.0,102,51,17,3
2254.0,1340.0,102,51,16,2
2254.0,1340.0,102,51,17,2
2255.0,1341.0,102,51,17,3
2257.0,1343.0,102,51,17,3
2259.0,1343.0,102,51,17,2
2259.0,1343.0,103,51,17,3
2262.0,1345.0,105,51,17,3
2263.0,1346.0,104,51,17,3
2267.0,1348.0,105,51,17,2
2267.0,1348.0,105,51,17,3
2267.0,1348.0,103,51,17,2
2267.0,1348.0,104,51,17,2
2270.0,1350.0,103,51,17,3
2270.0,1350.0,103,51,17,3
2271.0,1350.0,103,50,17,3
2274.0,1351.0,103,50,17,3
2274.0,1351.0,103,50,17,2
2277.0,1353.0,103,50,17,3
2277.0,1353.0,103,50,17,3
2277.0,1353.0,103,50,17,2
2279.0,1354.0,103,50,17,3
2281.0,1355.0,103,50,17,3
2281.0,1355.0,103,50,17,2
2286.0,1357.0,103,50,17,2
2286.0,1357.0,103,50,17,2
2289.0,1358.0,103,50,17,2
2289.0,1358.0,102,51,17,2
2289.0,1358.0,102,52,17,3
2292.0,1359.0,102,52,17,2
2294.0,1360.0,102,52,17,3
2294.0,1360.0,102,52,17,2
2297.0,1361.0,102,52,17,2
2298.0,1362.0,102,52,17,3
2300.0,1362.0,102,52,16,2
2300.0,1362.0,102,51,16,2
2302.0,1363.0,102,52,17,2
2305.0,1364.0,101,52,16,2
2305.0,1364.0,101,51,17,2
2307.0,1365.0,100,51,16,2
2310.0,1365.0,101,51,17,2
2311.0,1365.0,100,51,16,2
