x_pos,y_pos,channel_1,channel_2,channel_3,channel_4
2272.0,659.0,319,19,0,83
2268.0,661.0,22,32,0,83
2265.0,664.0,22,31,12,83
2265.0,664.0,22,31,16,111
2265.0,664.0,21,31,16,111
2265.0,664.0,21,31,16,11
2260.0,667.0,21,31,16,287
2260.0,667.0,22,31,16,287
2257.0,670.0,22,31,15,287
2257.0,670.0,21,31,15,287
2254.0,673.0,21,31,15,287
2254.0,673.0,22,31,15,286
2254.0,673.0,21,31,15,286
2250.0,676.0,21,31,15,286
2250.0,676.0,21,31,15,286
2246.0,679.0,21,31,15,286
2246.0,679.0,21,31,15,286
2244.0,681.0,21,31,15,285
2244.0,681.0,21,31,15,285
2244.0,681.0,21,31,15,284
2239.0,685.0,21,31,15,284
2239.0,685.0,21,31,15,284
2237.0,687.0,21,31,15,284
2233.0,690.0,21,31,15,284
2233.0,690.0,21,31,15,284
2233.0,690.0,21,31,15,283
2230.0,693.0,21,31,15,283
2230.0,693.0,21,31,15,283
2228.0,695.0,20,31,15,283
2228.0,695.0,21,31,15,282
2228.0,695.0,21,31,15,282
2223.0,699.0,20,31,15,282
2223.0,699.0,20,31,15,281
2223.0,699.0,21,30,15,281
2220.0,701.0,20,30,15,281
2220.0,701.0,20,30,15,281
2217.0,705.0,20,30,15,281
2217.0,705.0,20,30,15,280
2213.0,708.0,20,30,15,280
2213.0,708.0,20,30,15,280
2211.0,710.0,20,30,15,280
2211.0,710.0,20,30,15,280
2207.0,713.0,20,30,15,280
2207.0,713.0,20,30,15,280
2207.0,713.0,20,30,15,280
2207.0,713.0,20,30,14,280
2207.0,713.0,20,30,15,281
2205.0,716.0,20,30,15,281
2205.0,716.0,20,30,15,281
2200.0,720.0,20,30,15,281
2200.0,720.0,20,30,15,280
2194.0,727.0,20,30,15,280
2194.0,727.0,20,30,15,280
2192.0,729.0,20,30,15,280
2192.0,729.0,20,30,15,280
2188.0,733.0,20,30,15,280
2188.0,733.0,20,30,15,304
2188.0,733.0,20,30,15,306
2187.0,734.0,20,30,15,305
2187.0,734.0,20,30,15,305
2182.0,739.0,20,30,15,304
2182.0,739.0,20,30,15,304
2182.0,739.0,20,30,15,304
2180.0,742.0,20,30,15,304
2180.0,742.0,20,30,15,304
2177.0,745.0,20,30,15,303
2177.0,745.0,20,30,15,303
2174.0,747.0,20,30,15,303
2174.0,747.0,20,30,15,303
2174.0,747.0,20,30,15,302
2172.0,749.0,20,30,15,302
2172.0,749.0,20,29,15,302
2169.0,754.0,20,29,15,302
2169.0,754.0,20,29,15,302
2165.0,756.0,20,29,15,301
2165.0,756.0,20,29,15,301
2165.0,756.0,20,29,15,301
2164.0,759.0,20,29,15,300
2164.0,759.0,20,33,15,300
2161.0,762.0,20,49,15,300
2161.0,762.0,22,60,15,300
2159.0,764.0,24,60,15,300
2159.0,764.0,24,60,15,300
2157.0,768.0,25,60,15,299
2157.0,768.0,25,60,15,299
2154.0,770.0,25,60,15,299
2154.0,770.0,25,60,15,299
2152.0,772.0,25,60,15,298
2152.0,772.0,25,59,15,298
2152.0,772.0,25,59,15,297
2148.0,777.0,25,59,15,297
2148.0,777.0,25,62,15,297
2147.0,779.0,24,67,15,297
2147.0,779.0,24,67,15,297
2143.0,783.0,25,67,15,296
2143.0,783.0,24,67,15,295
2143.0,783.0,24,67,15,295
2142.0,785.0,24,67,15,295
2142.0,785.0,24,67,15,295
2139.0,789.0,24,67,15,295
2139.0,789.0,24,67,15,295
2139.0,789.0,24,67,15,295
2139.0,789.0,24,67,17,295
2139.0,789.0,24,66,17,295
2137.0,791.0,24,66,17,295
2137.0,791.0,24,66,17,295
2135.0,793.0,24,66,17,294
2135.0,793.0,24,66,17,294
2130.0,801.0,24,66,18,294
2130.0,801.0,24,65,18,294
2127.0,804.0,24,65,18,294
2127.0,804.0,24,65,17,294
2127.0,804.0,24,65,19,293
2125.0,806.0,24,65,22,292
2125.0,806.0,24,65,24,292
2125.0,806.0,24,65,24,292
2123.0,809.0,24,65,24,292
2123.0,809.0,24,65,25,292
2120.0,813.0,24,65,25,291
2120.0,813.0,24,65,25,291
2118.0,815.0,24,65,25,291
2118.0,815.0,24,64,25,291
2117.0,818.0,24,64,25,291
2117.0,818.0,24,64,25,291
2114.0,821.0,24,64,25,291
2114.0,821.0,24,65,31,291
2114.0,821.0,25,65,31,291
2113.0,824.0,27,65,31,290
2113.0,824.0,28,65,31,290
2110.0,828.0,28,65,31,289
2110.0,828.0,29,65,31,289
2110.0,828.0,29,65,31,289
2107.0,831.0,29,65,31,289
2107.0,831.0,29,65,31,289
2106.0,833.0,30,65,31,289
2106.0,833.0,29,65,31,288
2106.0,833.0,29,65,31,288
2103.0,837.0,29,65,30,287
2103.0,837.0,29,79,30,287
2103.0,837.0,29,78,30,287
2102.0,840.0,29,78,30,287
2102.0,840.0,29,78,30,287
2100.0,842.0,29,78,30,287
2100.0,842.0,29,77,30,287
2100.0,842.0,29,77,30,287
2098.0,846.0,28,77,30,287
2098.0,846.0,29,77,30,287
2096.0,849.0,28,77,30,287
2096.0,849.0,35,76,30,286
2095.0,850.0,36,76,31,286
2095.0,850.0,38,76,31,286
2092.0,855.0,38,76,31,286
2092.0,855.0,38,76,31,286
2092.0,855.0,38,76,31,285
2092.0,855.0,38,76,31,285
2091.0,858.0,38,76,31,285
2091.0,858.0,37,76,31,284
2086.0,865.0,38,76,31,284
2086.0,865.0,37,76,31,284
2084.0,867.0,37,76,31,284
2084.0,867.0,37,76,31,284
2083.0,870.0,37,75,31,284
2083.0,870.0,37,75,31,284
2081.0,874.0,37,75,31,284
2081.0,874.0,37,75,31,284
2079.0,877.0,37,75,31,283
2079.0,877.0,37,75,31,283
2079.0,877.0,36,75,31,283
2078.0,879.0,37,75,31,283
2078.0,879.0,36,75,31,283
2077.0,881.0,36,75,31,282
2077.0,881.0,36,74,31,282
2077.0,881.0,37,74,32,281
2074.0,885.0,36,74,32,283
2074.0,885.0,37,74,32,283
2073.0,887.0,37,74,32,283
2073.0,887.0,37,74,31,283
2073.0,887.0,38,73,31,283
2071.0,891.0,38,73,31,282
2071.0,891.0,38,73,31,281
2070.0,893.0,38,73,31,281
2070.0,893.0,38,73,31,281
2068.0,896.0,38,73,31,281
2068.0,896.0,38,73,31,281
2068.0,896.0,38,87,31,281
2066.0,899.0,37,86,31,280
2066.0,899.0,38,86,31,280
2066.0,902.0,38,86,31,280
2066.0,902.0,37,85,31,280
2066.0,902.0,37,85,31,280
2064.0,905.0,37,85,31,280
2064.0,905.0,37,84,31,280
2062.0,908.0,37,84,31,280
2062.0,908.0,37,84,31,280
2062.0,908.0,39,84,31,280
2061.0,910.0,45,84,31,280
2060.0,912.0,47,84,31,279
2060.0,912.0,47,84,31,279
2059.0,915.0,47,84,31,279
2059.0,915.0,47,83,31,279
2059.0,915.0,46,83,31,278
2058.0,918.0,46,83,31,278
2058.0,918.0,46,83,31,278
2056.0,921.0,46,83,31,278
2056.0,921.0,46,83,31,278
2055.0,925.0,46,83,31,278
2055.0,925.0,46,83,32,277
2055.0,925.0,46,83,32,277
2054.0,927.0,46,83,32,277
2054.0,927.0,46,83,32,276
2054.0,927.0,46,83,32,276
2054.0,927.0,46,83,32,276
2053.0,929.0,46,83,32,276
2053.0,929.0,46,82,32,276
2049.0,936.0,45,82,32,275
2049.0,936.0,46,82,32,275
2049.0,939.0,45,82,32,275
2049.0,939.0,45,82,32,275
2049.0,939.0,45,82,32,275
2048.0,941.0,45,82,32,275
2048.0,941.0,45,82,32,275
2046.0,944.0,45,82,32,275
2046.0,944.0,45,81,32,275
2046.0,944.0,45,81,32,275
2046.0,946.0,46,81,32,275
2046.0,946.0,45,81,32,275
2045.0,948.0,45,81,32,274
2045.0,948.0,45,81,31,274
2044.0,951.0,45,81,31,273
2044.0,951.0,45,81,31,273
2043.0,953.0,45,99,31,273
2043.0,953.0,45,99,31,273
2042.0,957.0,45,99,31,273
2042.0,957.0,45,99,31,273
2041.0,959.0,45,98,31,273
2040.0,962.0,45,98,31,272
2040.0,962.0,45,97,31,272
2039.0,964.0,45,97,31,272
2039.0,964.0,44,97,31,271
2039.0,964.0,44,97,31,271
2039.0,967.0,44,97,31,272
2039.0,967.0,44,97,31,291
2038.0,970.0,44,97,31,293
2038.0,970.0,44,97,31,292
2037.0,972.0,44,97,31,292
2037.0,972.0,44,96,31,292
2036.0,975.0,44,96,31,291
2036.0,975.0,44,96,31,291
2036.0,975.0,44,96,31,291
2036.0,976.0,44,96,31,291
2036.0,976.0,44,96,31,291
2036.0,979.0,44,96,31,291
2036.0,979.0,44,96,31,291
2036.0,979.0,44,96,31,290
2036.0,979.0,44,96,31,290
2035.0,982.0,44,95,31,290
2035.0,982.0,44,95,31,289
2035.0,982.0,44,95,31,289
2034.0,988.0,44,95,31,289
2034.0,988.0,44,95,31,289
2033.0,991.0,44,95,31,289
2033.0,991.0,44,95,31,288
2033.0,994.0,43,95,31,288
2033.0,994.0,44,94,31,288
2033.0,996.0,44,94,31,287
2033.0,996.0,43,94,31,287
2033.0,998.0,43,94,31,287
2033.0,998.0,43,94,31,287
2032.0,1000.0,43,94,31,287
2032.0,1000.0,43,94,31,287
2032.0,1000.0,43,94,31,287
2032.0,1003.0,43,94,31,287
2032.0,1003.0,43,93,31,287
2031.0,1006.0,43,93,31,286
2031.0,1006.0,43,93,31,286
2031.0,1008.0,43,93,31,286
2031.0,1008.0,43,97,31,286
2031.0,1010.0,43,97,31,286
2031.0,1010.0,43,97,31,285
2031.0,1013.0,43,96,31,285
2031.0,1013.0,43,96,30,285
2031.0,1013.0,43,96,30,284
2031.0,1015.0,43,96,30,284
2031.0,1015.0,42,96,30,284
2031.0,1015.0,42,96,30,284
2030.0,1017.0,42,96,30,284
2030.0,1017.0,42,96,30,284
2030.0,1017.0,47,96,30,284
2030.0,1019.0,49,96,30,284
2030.0,1019.0,51,96,30,284
2030.0,1021.0,51,95,30,283
2030.0,1021.0,51,95,30,283
2030.0,1025.0,51,95,30,283
2030.0,1025.0,51,95,30,283
2030.0,1026.0,51,95,30,282
2030.0,1026.0,51,95,30,282
2030.0,1027.0,51,95,30,282
2030.0,1027.0,51,95,30,281
2030.0,1030.0,51,94,30,281
2030.0,1030.0,51,94,30,281
2030.0,1032.0,50,94,30,281
2030.0,1032.0,51,94,30,281
2030.0,1032.0,50,94,30,281
2030.0,1032.0,50,94,30,280
2030.0,1035.0,50,94,30,280
2030.0,1037.0,50,94,30,280
2030.0,1037.0,50,94,30,280
2030.0,1037.0,50,94,30,280
2030.0,1043.0,50,93,30,280
2030.0,1043.0,50,93,30,280
2030.0,1046.0,49,93,30,280
2030.0,1046.0,50,93,29,280
2031.0,1047.0,49,92,30,280
2031.0,1047.0,49,92,29,279
2031.0,1047.0,49,92,29,279
2031.0,1049.0,49,92,29,279
2031.0,1049.0,49,92,29,279
2031.0,1050.0,49,92,29,279
2031.0,1050.0,49,92,29,279
2031.0,1050.0,49,92,29,278
2032.0,1053.0,49,92,29,278
2032.0,1053.0,49,92,29,278
2032.0,1055.0,49,99,29,278
2032.0,1055.0,49,99,29,277
2032.0,1058.0,49,99,29,277
2032.0,1058.0,49,99,29,277
2033.0,1060.0,49,99,29,276
2033.0,1060.0,49,99,29,276
2033.0,1060.0,48,99,29,276
2033.0,1061.0,48,99,29,276
2033.0,1061.0,48,99,29,275
2034.0,1064.0,48,99,28,275
2034.0,1064.0,48,98,28,275
2034.0,1064.0,48,98,28,275
2034.0,1066.0,48,98,28,275
2034.0,1066.0,48,98,28,275
2035.0,1069.0,48,97,28,275
2035.0,1069.0,48,97,28,275
2036.0,1070.0,48,97,28,275
2036.0,1070.0,48,97,28,275
2036.0,1071.0,48,97,28,274
2036.0,1071.0,48,97,28,274
2038.0,1075.0,48,97,28,274
2038.0,1075.0,48,97,28,274
2038.0,1076.0,48,97,28,273
2038.0,1076.0,48,96,28,273
2039.0,1079.0,48,96,28,273
2039.0,1079.0,48,96,28,273
2039.0,1080.0,48,96,28,273
2039.0,1080.0,47,96,28,273
2039.0,1080.0,47,96,28,272
2041.0,1083.0,47,96,28,272
2041.0,1083.0,47,96,28,272
2041.0,1085.0,47,96,28,271
2041.0,1085.0,47,96,28,271
2042.0,1087.0,47,96,28,271
2042.0,1087.0,47,96,28,271
2043.0,1089.0,47,95,28,271
2043.0,1089.0,47,95,28,271
2043.0,1089.0,47,95,28,271
2043.0,1090.0,47,95,28,271
2043.0,1090.0,47,95,28,271
2043.0,1090.0,47,95,28,271
2043.0,1090.0,47,95,28,271
2044.0,1092.0,47,95,28,271
2044.0,1092.0,47,94,28,270
2044.0,1092.0,46,94,28,270
2047.0,1096.0,46,94,28,270
2047.0,1096.0,46,97,28,270
2048.0,1098.0,46,97,28,270
2048.0,1098.0,46,97,28,270
2049.0,1100.0,46,97,28,269
2049.0,1100.0,46,97,28,269
2050.0,1102.0,46,97,28,269
2050.0,1102.0,46,97,28,269
2051.0,1104.0,46,97,28,268
2051.0,1104.0,46,96,27,268
2053.0,1106.0,46,96,27,268
2053.0,1106.0,46,96,27,268
2053.0,1107.0,46,96,27,268
2053.0,1107.0,46,96,27,268
2053.0,1107.0,46,96,27,268
2053.0,1107.0,45,96,27,268
2054.0,1108.0,45,96,27,268
2054.0,1108.0,46,96,27,268
2055.0,1110.0,45,96,27,267
2055.0,1110.0,45,96,27,267
2055.0,1110.0,46,95,27,267
2056.0,1113.0,45,95,27,267
2056.0,1113.0,45,95,27,267
2057.0,1114.0,45,95,27,267
2057.0,1114.0,45,95,27,266
2059.0,1116.0,45,95,27,266
2059.0,1116.0,45,95,27,265
2060.0,1118.0,45,95,27,265
2060.0,1118.0,44,94,27,265
2060.0,1118.0,44,94,27,265
2062.0,1119.0,44,94,27,265
2062.0,1119.0,44,94,27,265
2063.0,1121.0,44,94,27,265
2063.0,1121.0,44,94,27,265
2063.0,1121.0,44,94,27,264
2065.0,1123.0,44,94,27,264
2065.0,1123.0,44,94,27,263
2066.0,1124.0,44,94,27,265
2066.0,1124.0,44,93,27,265
2066.0,1125.0,44,93,27,265
2066.0,1125.0,44,93,27,265
2067.0,1126.0,44,93,27,265
2067.0,1126.0,44,93,27,264
2067.0,1126.0,44,92,26,264
2070.0,1128.0,44,92,26,263
2070.0,1128.0,44,92,26,263
2071.0,1130.0,44,92,26,263
2071.0,1130.0,44,92,26,263
2071.0,1130.0,44,92,26,263
2073.0,1132.0,44,92,26,263
2073.0,1132.0,44,92,26,263
2074.0,1133.0,44,92,26,263
2074.0,1133.0,44,92,26,263
2076.0,1135.0,44,92,26,263
2076.0,1135.0,43,92,26,263
2078.0,1136.0,44,92,25,263
2078.0,1136.0,43,92,25,263
2078.0,1136.0,43,92,26,263
2079.0,1138.0,43,91,25,263
2079.0,1138.0,43,91,25,262
2081.0,1139.0,43,91,25,262
2081.0,1139.0,43,91,25,262
2082.0,1141.0,43,91,25,262
2082.0,1141.0,43,91,25,262
2082.0,1141.0,43,91,25,262
2084.0,1142.0,43,91,25,262
2084.0,1142.0,43,91,25,261
2086.0,1144.0,43,90,25,261
2086.0,1144.0,43,90,25,261
2086.0,1144.0,43,90,25,260
2088.0,1145.0,43,89,25,260
2088.0,1145.0,43,89,25,260
2089.0,1147.0,43,89,25,260
2089.0,1147.0,42,89,25,260
2090.0,1147.0,43,89,25,260
2090.0,1147.0,42,89,25,259
2093.0,1148.0,42,89,25,259
2098.0,1152.0,42,89,25,259
2098.0,1152.0,42,89,25,259
2098.0,1152.0,42,89,25,259
2101.0,1155.0,42,88,25,259
2101.0,1155.0,41,88,25,259
2102.0,1155.0,41,88,25,259
2102.0,1155.0,42,88,25,271
2102.0,1155.0,41,88,25,271
2104.0,1157.0,41,88,25,271
2104.0,1157.0,41,88,25,271
2105.0,1157.0,41,88,25,271
2105.0,1157.0,41,88,25,270
2108.0,1159.0,41,88,25,270
2108.0,1159.0,41,88,25,270
2108.0,1159.0,41,88,25,270
2110.0,1160.0,41,88,25,270
2110.0,1160.0,41,88,25,270
2112.0,1162.0,41,88,25,269
2112.0,1162.0,41,88,25,269
2112.0,1162.0,41,88,25,268
2114.0,1162.0,41,88,25,268
2114.0,1162.0,41,88,24,268
2116.0,1164.0,41,88,24,268
2116.0,1164.0,41,88,25,268
2118.0,1164.0,41,88,24,268
2118.0,1164.0,41,88,24,268
2120.0,1166.0,41,87,24,268
2120.0,1166.0,40,87,24,268
2123.0,1167.0,40,87,24,268
2123.0,1167.0,41,87,24,268
2123.0,1167.0,41,87,24,267
2123.0,1167.0,41,87,24,267
2123.0,1167.0,40,87,24,267
2126.0,1168.0,40,87,24,267
2130.0,1171.0,40,87,24,266
2130.0,1171.0,39,86,24,266
2130.0,1171.0,39,86,24,265
2132.0,1171.0,39,86,24,265
2132.0,1171.0,39,86,24,265
2134.0,1172.0,39,86,24,265
2134.0,1172.0,39,86,25,265
2138.0,1174.0,39,86,24,265
2138.0,1174.0,39,86,25,265
2138.0,1174.0,39,86,25,265
2141.0,1175.0,39,85,25,264
2141.0,1175.0,39,85,24,264
2141.0,1175.0,39,85,24,263
2143.0,1176.0,39,85,24,263
2143.0,1176.0,39,85,24,263
2145.0,1177.0,39,84,24,263
2145.0,1177.0,39,84,24,263
2147.0,1178.0,39,84,24,263
2147.0,1178.0,39,84,24,263
2147.0,1178.0,39,84,24,264
2149.0,1178.0,39,84,24,264
2149.0,1178.0,39,84,24,263
2152.0,1179.0,39,84,24,263
2152.0,1179.0,39,83,24,263
2152.0,1179.0,39,83,24,263
2156.0,1181.0,39,83,24,263
2156.0,1181.0,39,83,24,263
2158.0,1181.0,39,83,24,263
2158.0,1181.0,39,83,24,263
2160.0,1182.0,39,83,24,263
2160.0,1182.0,39,83,24,263
2163.0,1183.0,39,83,24,263
2163.0,1183.0,39,83,24,263
2166.0,1184.0,39,83,24,263
2166.0,1184.0,39,83,24,262
2170.0,1184.0,39,83,24,262
2170.0,1184.0,39,83,24,262
2172.0,1185.0,39,83,24,262
2172.0,1185.0,39,83,24,262
2172.0,1185.0,39,83,24,262
2175.0,1186.0,39,83,24,262
2175.0,1186.0,39,82,24,261
2177.0,1187.0,39,82,24,262
2177.0,1187.0,39,82,24,261
2177.0,1187.0,39,82,24,260
2179.0,1187.0,39,82,24,260
2179.0,1187.0,38,81,24,260
2183.0,1188.0,38,81,24,260
2183.0,1188.0,39,81,24,260
2187.0,1189.0,38,81,24,259
2187.0,1189.0,38,81,24,259
2190.0,1190.0,38,81,24,259
2190.0,1190.0,38,81,24,259
2190.0,1190.0,38,81,24,259
2194.0,1191.0,38,81,24,259
2194.0,1191.0,38,81,24,259
2197.0,1191.0,38,81,24,259
2197.0,1191.0,38,81,24,259
2197.0,1191.0,38,81,24,259
2199.0,1191.0,38,80,24,259
2199.0,1191.0,38,80,24,258
2203.0,1192.0,38,80,24,258
2203.0,1192.0,38,80,24,258
2206.0,1193.0,38,80,24,258
2206.0,1193.0,38,79,24,258
2209.0,1193.0,38,79,24,258
2209.0,1193.0,38,79,24,258
2213.0,1194.0,38,79,23,257
2213.0,1194.0,37,79,24,257
2213.0,1194.0,38,79,24,257
2216.0,1195.0,38,79,23,257
2216.0,1195.0,37,79,23,257
2218.0,1195.0,37,79,24,257
2218.0,1195.0,37,79,23,257
2223.0,1196.0,37,81,23,256
2223.0,1196.0,37,81,23,256
2225.0,1196.0,37,81,23,127
2225.0,1196.0,37,81,23,127
2228.0,1196.0,37,80,23,127
2228.0,1196.0,36,80,23,127
2232.0,1197.0,36,80,23,127
2232.0,1197.0,37,80,23,127
2232.0,1197.0,37,80,23,127
2235.0,1197.0,36,80,23,127
2235.0,1197.0,36,79,23,127
2242.0,1198.0,36,79,23,127
2242.0,1198.0,36,79,23,127
2246.0,1198.0,36,79,23,127
2246.0,1198.0,36,79,23,127
2251.0,1199.0,36,79,23,127
2251.0,1199.0,36,79,23,127
2253.0,1199.0,36,79,23,126
2253.0,1199.0,36,79,23,126
2257.0,1200.0,36,79,23,126
2257.0,1200.0,36,79,23,126
2257.0,1200.0,36,79,23,126
2260.0,1200.0,36,79,23,126
2260.0,1200.0,36,79,23,126
2264.0,1200.0,36,79,23,126
2264.0,1200.0,36,79,22,125
2264.0,1200.0,36,79,23,125
2267.0,1200.0,35,79,23,125
2267.0,1200.0,35,78,22,124
2273.0,1200.0,35,78,22,124
2275.0,1200.0,35,78,22,124
2275.0,1200.0,35,78,22,124
2275.0,1200.0,35,78,22,124
2275.0,1200.0,35,78,22,124
2275.0,1200.0,35,78,22,124
2278.0,1200.0,35,78,22,124
2278.0,1200.0,35,78,22,124
2288.0,1201.0,35,78,22,124
2288.0,1201.0,35,78,22,125
2292.0,1201.0,35,78,22,124
2292.0,1201.0,35,77,22,124
2295.0,1201.0,35,77,22,124
2295.0,1201.0,35,77,22,124
2295.0,1201.0,35,77,22,124
2300.0,1201.0,35,77,22,124
2300.0,1201.0,35,77,22,124
2303.0,1201.0,35,81,22,124
2303.0,1201.0,35,80,22,124
2307.0,1201.0,35,80,22,124
2307.0,1201.0,35,80,22,123
2307.0,1201.0,35,80,22,123
2310.0,1201.0,35,79,22,123
2310.0,1201.0,35,79,22,123
2315.0,1201.0,35,79,22,123
2315.0,1201.0,35,79,22,123
2318.0,1201.0,35,79,22,122
2318.0,1201.0,35,79,22,122
2318.0,1201.0,35,79,22,122
2321.0,1201.0,35,79,22,122
2321.0,1201.0,35,79,22,121
2326.0,1201.0,35,79,22,121
2326.0,1201.0,35,79,22,121
2326.0,1201.0,35,79,22,121
2329.0,1201.0,35,79,22,121
2329.0,1201.0,35,79,22,121
2334.0,1201.0,34,79,22,121
2334.0,1201.0,34,79,22,120
2337.0,1201.0,34,79,22,120
2337.0,1201.0,34,78,22,120
2340.0,1201.0,34,78,21,120
2340.0,1201.0,34,78,21,120
2346.0,1201.0,34,78,21,120
2346.0,1201.0,34,78,21,120
2349.0,1201.0,34,78,21,120
2349.0,1201.0,34,78,21,120
2354.0,1201.0,34,78,21,120
2354.0,1201.0,34,78,21,120
2354.0,1201.0,34,78,21,120
2357.0,1201.0,33,78,21,120
2357.0,1201.0,34,78,21,120
2360.0,1201.0,33,77,21,120
2360.0,1201.0,33,77,21,120
2367.0,1201.0,33,77,21,119
2367.0,1201.0,33,77,21,120
2367.0,1201.0,33,77,21,119
2370.0,1201.0,33,77,21,119
2370.0,1201.0,33,77,21,119
2373.0,1201.0,33,76,21,119
2373.0,1201.0,33,76,21,119
2378.0,1201.0,33,76,21,119
2378.0,1201.0,33,76,20,118
2378.0,1201.0,33,76,20,118
2381.0,1201.0,33,76,20,118
2381.0,1201.0,33,76,20,118
2386.0,1201.0,33,76,20,118
2386.0,1201.0,33,76,20,118
2390.0,1201.0,33,76,20,118
2390.0,1201.0,33,76,20,118
2396.0,1200.0,33,76,20,117
2396.0,1200.0,33,76,20,117
2399.0,1200.0,33,76,20,117
2399.0,1200.0,33,76,20,116
2399.0,1200.0,33,76,20,116
2404.0,1200.0,33,76,20,116
2404.0,1200.0,33,76,20,116
2407.0,1199.0,33,75,20,116
2407.0,1199.0,33,75,20,116
2412.0,1199.0,32,75,20,116
2412.0,1199.0,33,75,20,115
2415.0,1199.0,33,75,20,115
2415.0,1199.0,33,75,20,115
2415.0,1199.0,32,75,20,115
2420.0,1198.0,32,75,20,115
2420.0,1198.0,32,75,20,115
2424.0,1198.0,32,75,20,115
2424.0,1198.0,32,75,20,115
2430.0,1197.0,32,75,20,115
2430.0,1197.0,32,74,20,115
2433.0,1197.0,32,74,20,115
2433.0,1197.0,32,74,20,115
2438.0,1196.0,32,73,20,115
2438.0,1196.0,31,73,20,114
2438.0,1196.0,31,73,20,114
2444.0,1196.0,31,73,20,114
2444.0,1196.0,31,73,19,114
2447.0,1196.0,31,73,19,113
2447.0,1196.0,31,73,19,113
2454.0,1195.0,31,73,19,113
2454.0,1195.0,31,73,19,113
2457.0,1195.0,31,73,19,113
2457.0,1195.0,31,73,19,113
2462.0,1194.0,31,73,19,113
2462.0,1194.0,31,73,19,113
2462.0,1194.0,31,72,19,113
2465.0,1194.0,31,72,19,113
2465.0,1194.0,31,72,19,113
2470.0,1193.0,31,72,19,113
2470.0,1193.0,31,72,19,113
2474.0,1193.0,31,73,19,112
2474.0,1193.0,31,73,19,112
2474.0,1193.0,31,72,19,112
2480.0,1192.0,31,72,19,112
2480.0,1192.0,31,72,19,112
2483.0,1191.0,31,72,19,112
2483.0,1191.0,31,72,19,112
2488.0,1191.0,31,71,19,112
2488.0,1191.0,31,71,19,112
2491.0,1190.0,31,71,19,112
2491.0,1190.0,31,71,19,112
2497.0,1189.0,31,71,19,112
2497.0,1189.0,31,71,19,111
2501.0,1189.0,31,71,19,111
2501.0,1189.0,31,71,19,111
2507.0,1188.0,31,71,19,111
2507.0,1188.0,31,71,19,111
2507.0,1188.0,31,71,19,111
2512.0,1188.0,31,71,19,111
2512.0,1188.0,31,71,19,110
2515.0,1187.0,31,71,19,110
2515.0,1187.0,31,71,19,110
2521.0,1186.0,31,71,19,110
2521.0,1186.0,31,71,19,110
2521.0,1186.0,31,71,19,110
2527.0,1185.0,30,71,19,110
2527.0,1185.0,31,71,19,110
2530.0,1185.0,31,71,19,110
2530.0,1185.0,31,71,19,110
2535.0,1184.0,31,71,19,109
2535.0,1184.0,30,71,19,109
2535.0,1184.0,30,71,19,109
2540.0,1183.0,31,71,19,109
2540.0,1183.0,30,70,19,109
2543.0,1182.0,30,70,19,108
2543.0,1182.0,30,70,19,108
2549.0,1181.0,30,70,19,108
2549.0,1181.0,30,70,19,108
2556.0,1180.0,30,70,19,108
2556.0,1180.0,30,70,19,108
2556.0,1180.0,30,70,19,108
2559.0,1180.0,30,70,19,108
2565.0,1179.0,30,70,19,108
2565.0,1179.0,30,70,19,108
2568.0,1178.0,30,70,19,108
2568.0,1178.0,30,70,19,108
2568.0,1178.0,30,71,19,108
2573.0,1177.0,30,71,19,108
2573.0,1177.0,30,71,19,108
2579.0,1176.0,30,71,19,107
2579.0,1176.0,30,71,18,107
2584.0,1175.0,30,71,18,107
2584.0,1175.0,30,71,18,107
2584.0,1175.0,30,71,19,107
2588.0,1174.0,30,71,18,107
2588.0,1174.0,30,71,18,107
2593.0,1173.0,29,71,19,107
2599.0,1172.0,30,71,18,107
2599.0,1172.0,30,71,18,107
2602.0,1172.0,30,71,18,106
2602.0,1172.0,30,70,18,106
2602.0,1172.0,30,70,18,106
2607.0,1171.0,30,70,18,105
2607.0,1171.0,29,70,18,105
2614.0,1170.0,30,70,18,105
2614.0,1170.0,29,70,18,105
2617.0,1169.0,29,70,18,105
2617.0,1169.0,29,70,18,105
2617.0,1169.0,29,70,18,105
2617.0,1169.0,30,70,18,105
2623.0,1168.0,29,70,18,104
2623.0,1168.0,29,69,18,104
2629.0,1166.0,29,69,18,104
2629.0,1166.0,29,69,18,104
2629.0,1166.0,29,69,18,103
2640.0,1164.0,29,69,18,103
2640.0,1164.0,29,69,17,103
2645.0,1163.0,29,68,18,103
2645.0,1163.0,29,68,18,103
2648.0,1162.0,28,68,17,103
2648.0,1162.0,29,68,18,103
2648.0,1162.0,29,68,18,103
2654.0,1161.0,29,68,17,103
2654.0,1161.0,29,68,17,103
2660.0,1160.0,29,68,18,103
2660.0,1160.0,29,68,17,103
2663.0,1160.0,28,68,17,103
2663.0,1160.0,28,68,17,103
2668.0,1159.0,28,68,17,103
2668.0,1159.0,28,67,17,103
2674.0,1158.0,28,67,17,103
2674.0,1158.0,28,67,17,103
2678.0,1157.0,28,67,17,103
2678.0,1157.0,28,67,17,103
2678.0,1157.0,28,67,17,103
2684.0,1156.0,28,67,17,102
2684.0,1156.0,28,67,17,102
2689.0,1155.0,28,67,17,102
2689.0,1155.0,28,67,17,102
2689.0,1155.0,28,67,17,102
2693.0,1154.0,28,67,17,102
2693.0,1154.0,28,67,17,102
2698.0,1152.0,28,67,17,102
2698.0,1152.0,28,67,17,102
2704.0,1151.0,28,67,17,101
2704.0,1151.0,28,67,17,101
2704.0,1151.0,28,67,17,101
2704.0,1151.0,28,67,17,101
2704.0,1151.0,28,66,17,100
2707.0,1151.0,28,66,17,100
2707.0,1151.0,28,66,17,100
2707.0,1151.0,28,66,17,100
2713.0,1150.0,28,66,17,100
2713.0,1150.0,28,66,17,100
2713.0,1150.0,28,66,17,100
2718.0,1149.0,28,66,17,100
2718.0,1149.0,28,66,17,99
2721.0,1148.0,28,65,17,99
2721.0,1148.0,28,65,17,99
2727.0,1147.0,28,65,17,99
2727.0,1147.0,28,65,17,99
2727.0,1147.0,28,65,17,99
2730.0,1146.0,28,65,17,99
2730.0,1146.0,28,65,17,99
2736.0,1145.0,27,65,17,99
2736.0,1145.0,27,65,17,99
2736.0,1145.0,27,65,17,99
2736.0,1145.0,27,65,17,99
2736.0,1145.0,28,65,17,99
2739.0,1145.0,27,65,17,99
2739.0,1145.0,27,65,17,99
2739.0,1145.0,27,65,16,100
2744.0,1144.0,27,64,17,100
2744.0,1144.0,27,64,17,99
2755.0,1141.0,27,64,17,99
2755.0,1141.0,27,64,16,99
2758.0,1141.0,27,64,16,99
2758.0,1141.0,27,64,16,99
2764.0,1140.0,27,65,16,99
2764.0,1140.0,27,65,16,99
2767.0,1139.0,27,65,16,99
2767.0,1139.0,27,65,16,99
2773.0,1138.0,27,65,16,99
2773.0,1138.0,27,65,16,99
2776.0,1137.0,27,65,16,99
2776.0,1137.0,27,65,16,99
2783.0,1136.0,27,65,16,98
2783.0,1136.0,27,65,16,98
2786.0,1136.0,27,65,16,98
2786.0,1136.0,27,65,16,98
2786.0,1136.0,27,64,16,98
2788.0,1136.0,27,64,16,98
2788.0,1136.0,27,64,16,97
2793.0,1134.0,27,64,16,97
2793.0,1134.0,27,64,16,97
2793.0,1134.0,27,63,16,97
2797.0,1134.0,27,63,16,97
2797.0,1134.0,26,63,16,97
2800.0,1133.0,27,63,16,97
2800.0,1133.0,26,63,16,97
2806.0,1132.0,26,63,16,97
2806.0,1132.0,26,63,16,97
2809.0,1131.0,26,63,16,96
2809.0,1131.0,26,63,15,96
2812.0,1131.0,25,63,15,96
2812.0,1131.0,26,63,15,96
2815.0,1130.0,26,63,15,96
2815.0,1130.0,26,63,15,96
2821.0,1129.0,26,63,15,96
2821.0,1129.0,26,63,15,96
2824.0,1129.0,25,63,15,96
2824.0,1129.0,25,63,15,96
2824.0,1129.0,25,63,15,96
2827.0,1128.0,25,63,15,96
2832.0,1127.0,25,63,15,96
2832.0,1127.0,25,63,15,96
2832.0,1127.0,25,63,15,107
2835.0,1126.0,25,63,15,107
2835.0,1126.0,25,63,15,106
2835.0,1126.0,25,63,15,106
2839.0,1126.0,25,63,15,105
2842.0,1126.0,25,63,15,105
2842.0,1126.0,25,62,15,105
2842.0,1126.0,25,62,15,105
2845.0,1125.0,25,63,15,105
2845.0,1125.0,25,63,15,105
2848.0,1125.0,25,63,15,105
2848.0,1125.0,25,63,15,105
2851.0,1124.0,25,63,15,104
2851.0,1124.0,25,63,15,104
2851.0,1124.0,25,63,15,104
2854.0,1123.0,25,63,15,103
2854.0,1123.0,25,63,15,103
2857.0,1123.0,25,63,15,103
2857.0,1123.0,25,63,15,103
2857.0,1123.0,25,63,15,103
2860.0,1123.0,25,63,15,103
2860.0,1123.0,25,63,15,103
2860.0,1123.0,25,63,15,103
2860.0,1123.0,25,63,15,103
2864.0,1122.0,25,62,15,103
2864.0,1122.0,25,62,15,103
2864.0,1122.0,25,62,15,103
2864.0,1122.0,25,62,15,103
2866.0,1122.0,25,62,15,103
2866.0,1122.0,25,62,15,103
2875.0,1120.0,25,62,15,103
2875.0,1120.0,24,62,15,103
2875.0,1120.0,25,62,15,103
2879.0,1119.0,24,62,15,102
2879.0,1119.0,24,62,15,102
2879.0,1119.0,24,62,15,102
2882.0,1119.0,24,62,15,102
2882.0,1119.0,24,62,15,102
2885.0,1118.0,24,62,15,102
2885.0,1118.0,24,61,15,102
2886.0,1118.0,24,61,15,102
2886.0,1118.0,24,61,15,101
2889.0,1118.0,24,61,15,101
2889.0,1118.0,24,61,15,101
2892.0,1118.0,24,61,15,100
2892.0,1118.0,24,61,15,100
2892.0,1118.0,24,61,15,103
2894.0,1117.0,24,61,15,103
2894.0,1117.0,24,61,15,103
2897.0,1117.0,24,61,15,103
2897.0,1117.0,24,60,15,103
2897.0,1117.0,24,60,15,103
2900.0,1116.0,24,60,15,103
2900.0,1116.0,24,63,15,103
2901.0,1116.0,24,65,15,103
2901.0,1116.0,24,65,15,103
2905.0,1116.0,24,65,15,103
2905.0,1116.0,24,65,15,102
2905.0,1116.0,24,64,15,102
2951.0,1126.0,24,64,15,102
2951.0,1126.0,24,64,15,102
2951.0,1126.0,24,64,15,102
2951.0,1126.0,24,64,15,102
2951.0,1127.0,24,63,15,102
2951.0,1127.0,24,63,15,102
2950.0,1127.0,24,63,15,102
2950.0,1127.0,24,63,15,101
2950.0,1127.0,24,63,15,101
2950.0,1128.0,24,63,15,101
2950.0,1128.0,24,63,15,100
2949.0,1128.0,24,63,15,100
2949.0,1128.0,24,63,15,100
2949.0,1129.0,24,63,15,100
2949.0,1129.0,24,63,15,100
2949.0,1129.0,24,63,15,100
2948.0,1129.0,24,63,14,100
2948.0,1129.0,24,63,14,100
2948.0,1130.0,24,63,15,99
2948.0,1130.0,24,63,14,99
2947.0,1130.0,24,63,14,99
2947.0,1130.0,24,63,14,99
2947.0,1130.0,24,63,14,99
2947.0,1131.0,24,63,14,99
2947.0,1131.0,24,63,14,99
2946.0,1131.0,24,63,14,99
2946.0,1131.0,24,63,14,99
2946.0,1131.0,24,63,14,99
2945.0,1132.0,24,62,14,99
2945.0,1132.0,23,62,14,99
2945.0,1132.0,24,62,14,99
2945.0,1132.0,23,62,14,99
2945.0,1132.0,23,62,14,98
2944.0,1133.0,23,62,14,113
2944.0,1133.0,23,62,14,115
2943.0,1134.0,23,62,14,115
2943.0,1134.0,23,62,14,115
2942.0,1134.0,23,62,14,115
2942.0,1134.0,23,62,14,114
2942.0,1134.0,23,62,14,114
2942.0,1135.0,23,62,14,113
2942.0,1135.0,23,63,14,113
2942.0,1135.0,23,63,14,113
2941.0,1135.0,23,63,14,113
2941.0,1135.0,23,63,14,113
2940.0,1137.0,23,63,14,113
2940.0,1137.0,23,63,14,113
2940.0,1137.0,23,63,14,112
2939.0,1137.0,23,63,14,112
2939.0,1137.0,23,63,14,112
2939.0,1137.0,23,63,14,112
2939.0,1137.0,23,63,14,112
2938.0,1138.0,23,63,14,112
2938.0,1138.0,23,62,14,112
2937.0,1139.0,23,62,14,112
2937.0,1139.0,23,62,14,112
2937.0,1139.0,23,62,14,112
2936.0,1139.0,23,62,14,112
2936.0,1139.0,23,62,14,111
2935.0,1141.0,22,62,14,111
2935.0,1141.0,22,62,14,111
2935.0,1141.0,23,62,14,111
2934.0,1141.0,23,62,14,111
2934.0,1141.0,22,62,14,111
2932.0,1142.0,22,62,14,110
2932.0,1142.0,22,62,14,110
2932.0,1142.0,22,62,14,110
2932.0,1142.0,22,61,14,110
2930.0,1143.0,22,61,14,110
2930.0,1143.0,22,61,14,110
2929.0,1145.0,22,61,14,110
2929.0,1145.0,22,61,14,110
2928.0,1145.0,22,61,14,109
2928.0,1145.0,22,61,14,109
2927.0,1146.0,22,61,14,109
2927.0,1146.0,22,60,13,109
2927.0,1146.0,22,60,14,109
2927.0,1146.0,22,60,14,108
2927.0,1146.0,22,60,13,108
2925.0,1148.0,22,60,13,108
2925.0,1148.0,22,60,14,108
2924.0,1148.0,22,60,14,108
2924.0,1148.0,22,60,13,108
2924.0,1148.0,22,60,13,108
2923.0,1149.0,22,60,13,108
2923.0,1149.0,22,60,13,108
2921.0,1149.0,22,60,13,108
2921.0,1149.0,22,62,13,108
2920.0,1150.0,22,62,13,108
2920.0,1150.0,22,62,13,108
2919.0,1152.0,22,62,13,108
2919.0,1152.0,22,62,13,107
2918.0,1152.0,22,62,13,107
2918.0,1152.0,22,62,13,107
2918.0,1152.0,21,62,13,107
2917.0,1153.0,22,62,13,107
2917.0,1153.0,22,62,13,107
2915.0,1153.0,21,62,13,107
2915.0,1153.0,21,61,13,106
2913.0,1154.0,21,61,13,106
2913.0,1154.0,22,61,13,106
2912.0,1156.0,21,61,13,105
2912.0,1156.0,22,61,13,105
2911.0,1156.0,21,61,13,105
2911.0,1156.0,21,61,13,105
2910.0,1157.0,21,61,13,105
2910.0,1157.0,21,61,13,105
2908.0,1158.0,21,60,13,105
2908.0,1158.0,21,60,13,105
2906.0,1159.0,21,60,13,105
2906.0,1159.0,21,60,13,104
2905.0,1160.0,21,60,13,104
2905.0,1160.0,21,60,13,104
2903.0,1160.0,21,60,13,104
2903.0,1160.0,20,60,13,103
2901.0,1162.0,21,60,13,103
2901.0,1162.0,21,60,13,103
2899.0,1162.0,21,60,13,103
2899.0,1162.0,20,60,13,103
2898.0,1163.0,20,60,13,103
2898.0,1163.0,20,60,12,103
2898.0,1164.0,20,60,13,103
2896.0,1164.0,20,60,12,103
2896.0,1164.0,20,60,12,103
2896.0,1164.0,20,60,12,103
2893.0,1166.0,20,60,13,103
2893.0,1166.0,20,60,12,103
2893.0,1166.0,20,60,12,103
2892.0,1167.0,20,60,12,103
2892.0,1167.0,20,59,12,103
2890.0,1167.0,20,59,12,103
2890.0,1167.0,20,59,12,103
2887.0,1168.0,20,59,12,103
2887.0,1168.0,20,60,12,103
2887.0,1169.0,20,60,12,103
2887.0,1169.0,20,60,12,103
2887.0,1169.0,20,60,12,103
2885.0,1170.0,20,60,12,103
2885.0,1170.0,20,60,12,103
2882.0,1171.0,20,60,12,103
2882.0,1171.0,20,60,12,102
2882.0,1171.0,20,60,12,103
2882.0,1171.0,20,60,12,102
2882.0,1171.0,20,60,12,102
2879.0,1172.0,20,59,12,102
2879.0,1172.0,20,59,12,102
2878.0,1173.0,20,59,12,102
2878.0,1173.0,20,59,12,102
2876.0,1174.0,19,59,12,102
2876.0,1174.0,20,59,12,102
2875.0,1174.0,20,59,12,102
2875.0,1174.0,20,59,12,102
2873.0,1175.0,20,59,12,101
2873.0,1175.0,19,59,12,100
2871.0,1176.0,20,59,12,100
2871.0,1176.0,20,59,12,100
2871.0,1176.0,20,59,12,100
2868.0,1177.0,19,59,12,100
2868.0,1177.0,19,58,12,100
2866.0,1178.0,19,58,12,100
2866.0,1178.0,19,58,12,100
2864.0,1179.0,19,58,12,100
2864.0,1179.0,19,58,12,99
2863.0,1179.0,19,58,12,99
2863.0,1179.0,19,57,12,99
2863.0,1179.0,19,57,12,99
2859.0,1181.0,19,57,12,99
2859.0,1181.0,19,57,12,99
2858.0,1182.0,19,57,12,99
2858.0,1182.0,19,57,12,99
2856.0,1182.0,19,57,12,99
2856.0,1182.0,19,57,12,99
2854.0,1183.0,19,57,12,105
2854.0,1183.0,19,57,12,107
2852.0,1184.0,19,57,12,106
2852.0,1184.0,19,57,12,106
2852.0,1184.0,19,57,12,105
2849.0,1185.0,19,57,12,105
2849.0,1185.0,19,57,12,105
2848.0,1185.0,19,57,12,105
2848.0,1185.0,19,57,12,105
2845.0,1186.0,19,56,12,105
2845.0,1186.0,19,56,12,105
2843.0,1187.0,19,56,12,105
2843.0,1187.0,19,56,12,104
2843.0,1187.0,19,56,12,104
2840.0,1187.0,19,56,12,104
2840.0,1187.0,19,56,12,103
2839.0,1188.0,19,56,12,103
2839.0,1188.0,19,56,12,103
2837.0,1189.0,19,56,12,103
2837.0,1189.0,19,56,12,103
2835.0,1190.0,19,56,12,103
2835.0,1190.0,19,56,12,103
2832.0,1190.0,19,56,12,103
2832.0,1190.0,19,56,12,103
2831.0,1191.0,19,56,12,103
2831.0,1191.0,19,56,12,103
2828.0,1192.0,19,56,12,103
2828.0,1192.0,19,56,12,103
2826.0,1192.0,19,56,12,103
2826.0,1192.0,19,56,12,103
2824.0,1193.0,19,56,12,103
2824.0,1193.0,19,56,12,103
2824.0,1193.0,19,56,12,102
2822.0,1194.0,19,56,12,102
2822.0,1194.0,19,56,11,102
2822.0,1194.0,19,56,12,102
2822.0,1194.0,19,55,12,102
2819.0,1195.0,19,55,12,102
2819.0,1195.0,19,55,11,102
2813.0,1197.0,19,55,12,102
2813.0,1197.0,19,55,12,102
2811.0,1197.0,19,55,11,102
2811.0,1197.0,19,55,12,101
2811.0,1197.0,19,55,11,101
2809.0,1197.0,19,55,11,101
2809.0,1197.0,18,55,11,100
2807.0,1198.0,19,55,11,100
2807.0,1198.0,18,55,11,100
2805.0,1199.0,19,55,11,100
2805.0,1199.0,18,55,11,100
2802.0,1200.0,19,55,11,100
2802.0,1200.0,19,54,11,100
2800.0,1200.0,18,57,11,100
2800.0,1200.0,18,65,11,99
2800.0,1200.0,18,65,11,99
2798.0,1201.0,19,65,11,99
2798.0,1201.0,21,64,11,99
2796.0,1201.0,21,65,11,99
2796.0,1201.0,22,64,11,99
2794.0,1202.0,22,64,11,99
2794.0,1202.0,22,64,11,99
2792.0,1202.0,22,63,11,99
2792.0,1202.0,22,63,11,99
2789.0,1203.0,21,63,11,99
2789.0,1203.0,22,63,11,99
2789.0,1203.0,21,63,11,99
2787.0,1203.0,21,63,11,99
2787.0,1203.0,21,63,11,98
2785.0,1204.0,21,63,11,98
2785.0,1204.0,21,63,11,98
2782.0,1205.0,21,63,11,98
2782.0,1205.0,21,63,11,98
2781.0,1205.0,21,63,11,98
2781.0,1205.0,21,63,11,97
2778.0,1205.0,21,63,11,97
2778.0,1205.0,21,63,11,97
2778.0,1205.0,21,63,11,97
2775.0,1206.0,20,63,11,97
2775.0,1206.0,20,63,11,97
2775.0,1206.0,20,63,11,97
2773.0,1207.0,21,63,11,97
2773.0,1207.0,20,63,11,97
2773.0,1207.0,21,63,11,96
2771.0,1207.0,20,62,11,96
2771.0,1207.0,20,62,11,96
2771.0,1207.0,21,62,11,96
2769.0,1208.0,20,62,11,96
2769.0,1208.0,20,62,11,96
2769.0,1208.0,20,62,11,96
2767.0,1208.0,20,62,11,96
2767.0,1208.0,20,62,11,96
2765.0,1208.0,20,62,11,96
2765.0,1208.0,20,62,11,103
2762.0,1209.0,20,62,11,108
2762.0,1209.0,20,62,11,108
2760.0,1209.0,20,62,11,108
2760.0,1209.0,20,61,11,108
2758.0,1210.0,20,61,11,108
2758.0,1210.0,20,61,11,107
2756.0,1210.0,20,61,11,107
2756.0,1210.0,20,61,11,107
2754.0,1210.0,20,61,11,107
2754.0,1210.0,20,61,11,107
2751.0,1211.0,20,61,10,107
2751.0,1211.0,20,61,11,107
2749.0,1211.0,19,61,11,106
2749.0,1211.0,20,61,11,106
2747.0,1212.0,20,60,10,106
2747.0,1212.0,20,60,11,105
2745.0,1212.0,20,60,11,105
2745.0,1212.0,20,60,11,105
2745.0,1212.0,19,60,11,105
2743.0,1213.0,19,60,11,105
2743.0,1213.0,19,60,10,105
2740.0,1213.0,19,60,10,105
2740.0,1213.0,20,60,11,105
2738.0,1213.0,20,60,10,105
2738.0,1213.0,20,60,10,104
2738.0,1213.0,20,60,10,104
2735.0,1213.0,20,60,10,103
2735.0,1213.0,20,60,10,103
2733.0,1213.0,20,60,10,103
2733.0,1213.0,19,60,10,103
2731.0,1214.0,19,60,10,103
2731.0,1214.0,19,60,10,103
2731.0,1214.0,19,60,10,103
2729.0,1214.0,19,60,10,103
2729.0,1214.0,19,59,10,103
2727.0,1215.0,19,59,10,103
2727.0,1215.0,19,59,10,103
2725.0,1215.0,19,59,10,103
2725.0,1215.0,19,59,10,103
2723.0,1215.0,19,59,10,103
2723.0,1215.0,19,59,10,103
2720.0,1215.0,19,59,10,103
2720.0,1215.0,19,59,10,103
2718.0,1216.0,19,59,10,103
2718.0,1216.0,19,59,10,102
2718.0,1216.0,19,59,10,102
2715.0,1216.0,19,59,9,102
2715.0,1216.0,19,58,10,102
2715.0,1216.0,19,58,9,102
2713.0,1216.0,19,58,10,102
2713.0,1216.0,19,58,9,102
2712.0,1216.0,19,60,10,102
2707.0,1216.0,19,62,9,102
2707.0,1216.0,19,62,9,101
2707.0,1216.0,19,62,9,101
2707.0,1216.0,19,62,9,101
2705.0,1216.0,19,62,9,101
2705.0,1216.0,19,62,9,101
2703.0,1216.0,19,62,9,100
2703.0,1216.0,19,62,9,100
2701.0,1216.0,19,62,9,100
2701.0,1216.0,19,61,9,100
2701.0,1216.0,19,61,9,100
2699.0,1216.0,19,61,9,100
2699.0,1216.0,19,61,9,100
2698.0,1216.0,19,61,9,99
2698.0,1216.0,19,61,9,99
2696.0,1216.0,19,61,9,99
2696.0,1216.0,19,61,9,99
2693.0,1217.0,19,61,9,99
2693.0,1217.0,19,60,9,99
2693.0,1217.0,19,60,9,99
2691.0,1217.0,19,60,9,99
2691.0,1217.0,19,60,9,99
2689.0,1217.0,19,60,9,99
2689.0,1217.0,19,60,9,99
2687.0,1217.0,19,60,9,99
2687.0,1217.0,19,60,9,99
2685.0,1217.0,19,60,9,98
2685.0,1217.0,19,60,9,98
2683.0,1217.0,19,60,9,98
2683.0,1217.0,19,60,9,98
2681.0,1217.0,19,60,9,98
2681.0,1217.0,19,60,9,98
2678.0,1217.0,19,60,9,97
2678.0,1217.0,19,60,9,97
2678.0,1217.0,19,60,9,97
2677.0,1217.0,18,60,9,97
2677.0,1217.0,19,60,9,97
2675.0,1217.0,19,60,9,97
2675.0,1217.0,18,59,9,97
2673.0,1217.0,18,59,9,97
2673.0,1217.0,18,59,9,97
2673.0,1217.0,18,59,9,99
2670.0,1217.0,19,59,9,99
2670.0,1217.0,18,59,9,99
2669.0,1217.0,18,59,9,99
2669.0,1217.0,18,59,9,99
2667.0,1217.0,18,60,9,99
2667.0,1217.0,18,60,9,98
2665.0,1217.0,18,60,9,98
2665.0,1217.0,18,60,9,98
2665.0,1217.0,18,60,9,98
2663.0,1217.0,18,60,9,97
2663.0,1217.0,18,60,9,97
2661.0,1217.0,18,60,9,97
2661.0,1217.0,18,60,9,97
2661.0,1217.0,18,60,9,97
2659.0,1217.0,18,60,9,97
2659.0,1217.0,18,59,9,97
2657.0,1217.0,18,59,9,97
2657.0,1217.0,18,59,9,97
2657.0,1217.0,18,59,9,97
2655.0,1217.0,18,59,9,97
2655.0,1217.0,18,59,9,97
2653.0,1216.0,18,59,9,96
2653.0,1216.0,17,59,9,96
2651.0,1216.0,17,59,9,96
2651.0,1216.0,18,59,9,96
2648.0,1215.0,17,59,9,96
2648.0,1215.0,17,59,9,96
2646.0,1215.0,17,59,9,96
2646.0,1215.0,17,59,9,96
2646.0,1215.0,17,58,9,96
2645.0,1215.0,17,58,9,96
2645.0,1215.0,17,58,9,96
2645.0,1215.0,17,58,9,96
2645.0,1215.0,17,58,9,95
2643.0,1215.0,17,57,9,95
2643.0,1215.0,17,57,9,95
2638.0,1214.0,17,57,9,95
2638.0,1214.0,17,57,9,95
2636.0,1213.0,17,57,9,95
2636.0,1213.0,17,57,9,95
2634.0,1213.0,17,57,9,94
2634.0,1213.0,17,57,9,94
2634.0,1213.0,17,57,9,94
2632.0,1212.0,17,57,8,94
2632.0,1212.0,17,57,9,94
2629.0,1212.0,17,57,9,94
2629.0,1212.0,17,57,9,94
2629.0,1212.0,17,57,9,94
2629.0,1212.0,17,57,8,94
2627.0,1211.0,17,57,8,94
2627.0,1211.0,17,57,8,94
2627.0,1211.0,17,57,8,94
2627.0,1211.0,17,56,8,93
2627.0,1211.0,17,56,8,94
2627.0,1211.0,17,56,8,94
2627.0,1211.0,17,56,8,93
2624.0,1210.0,17,56,8,93
2624.0,1210.0,17,56,8,93
2623.0,1210.0,17,56,8,93
2623.0,1210.0,17,56,8,93
2620.0,1209.0,17,56,8,92
2620.0,1209.0,17,56,8,92
2619.0,1209.0,17,56,8,92
2619.0,1209.0,17,56,8,92
2619.0,1209.0,17,56,8,92
2617.0,1208.0,17,56,8,92
2617.0,1208.0,17,56,8,92
2615.0,1207.0,17,56,8,92
2615.0,1207.0,17,56,8,92
2613.0,1207.0,17,56,8,92
2613.0,1207.0,17,56,8,92
2613.0,1207.0,17,56,8,92
2611.0,1206.0,17,56,8,92
2611.0,1206.0,17,56,8,92
2608.0,1206.0,17,56,8,91
2608.0,1206.0,17,56,8,91
2607.0,1205.0,17,56,8,92
2607.0,1205.0,17,56,8,91
2604.0,1204.0,17,55,8,91
2604.0,1204.0,16,55,8,91
2604.0,1204.0,16,55,8,91
2603.0,1204.0,16,55,8,91
2603.0,1204.0,16,55,8,91
2600.0,1202.0,16,55,8,91
2600.0,1202.0,16,55,8,90
2600.0,1202.0,16,55,7,90
2598.0,1201.0,16,55,8,90
2598.0,1201.0,16,55,7,90
2598.0,1201.0,16,55,7,90
2598.0,1201.0,16,55,7,89
2596.0,1201.0,16,55,7,92
2596.0,1201.0,16,55,7,95
2594.0,1200.0,16,54,7,96
2594.0,1200.0,16,54,7,96
2592.0,1198.0,16,54,7,96
2592.0,1198.0,16,54,7,96
2590.0,1198.0,16,60,7,96
2590.0,1198.0,16,60,7,95
2590.0,1198.0,16,60,7,95
2588.0,1197.0,16,60,7,95
2588.0,1197.0,15,60,7,95
2586.0,1196.0,16,60,7,95
2586.0,1196.0,16,60,7,95
2584.0,1195.0,16,60,7,95
2584.0,1195.0,16,60,7,95
2584.0,1195.0,16,60,7,94
2583.0,1194.0,15,60,7,94
2583.0,1194.0,15,60,7,94
2580.0,1193.0,15,60,7,94
2580.0,1193.0,15,60,7,94
2578.0,1192.0,15,59,7,94
2578.0,1192.0,15,59,7,94
2578.0,1192.0,15,59,7,94
2578.0,1192.0,15,59,7,94
2576.0,1191.0,16,59,7,94
2576.0,1191.0,15,59,7,93
2573.0,1190.0,15,59,7,93
2573.0,1190.0,15,59,7,93
2572.0,1189.0,15,59,7,93
2572.0,1189.0,15,59,7,93
2570.0,1188.0,15,59,7,92
2570.0,1188.0,15,59,7,92
2568.0,1186.0,15,59,7,92
2568.0,1186.0,15,58,7,92
2567.0,1186.0,15,58,7,92
2567.0,1186.0,15,58,7,92
2565.0,1185.0,15,58,7,92
2565.0,1185.0,15,58,7,92
2562.0,1183.0,15,58,7,92
2562.0,1183.0,15,57,7,92
2562.0,1183.0,15,57,7,92
2560.0,1182.0,15,57,7,92
2560.0,1182.0,15,57,7,92
2559.0,1181.0,15,57,7,91
2559.0,1181.0,15,57,7,91
2558.0,1181.0,15,57,7,91
2558.0,1181.0,15,57,7,91
2556.0,1179.0,15,57,7,92
2556.0,1179.0,15,57,7,92
2554.0,1179.0,15,57,7,92
2553.0,1177.0,15,57,7,92
2553.0,1177.0,15,57,7,92
2553.0,1177.0,15,65,7,91
2550.0,1176.0,15,65,7,91
2550.0,1176.0,15,65,7,91
2549.0,1175.0,15,65,7,91
2549.0,1175.0,15,65,7,91
2547.0,1173.0,15,65,7,91
2547.0,1173.0,15,65,7,91
2547.0,1173.0,15,65,7,91
2545.0,1172.0,15,65,7,91
2545.0,1172.0,15,64,7,90
2544.0,1171.0,15,64,7,90
2544.0,1171.0,15,64,7,90
2542.0,1170.0,15,64,7,90
2542.0,1170.0,15,63,7,89
2542.0,1170.0,15,64,7,89
2540.0,1168.0,15,63,7,89
2540.0,1168.0,15,63,7,89
2538.0,1167.0,15,63,7,89
2538.0,1167.0,15,63,7,89
2538.0,1167.0,15,63,7,89
2537.0,1166.0,15,63,7,89
2537.0,1166.0,15,63,7,89
2535.0,1165.0,15,63,7,88
2535.0,1165.0,15,63,7,89
2535.0,1165.0,15,63,7,88
2534.0,1164.0,15,63,7,88
2534.0,1164.0,15,63,7,88
2532.0,1162.0,15,63,7,88
2532.0,1162.0,15,63,7,88
2532.0,1162.0,15,63,7,88
2530.0,1161.0,15,63,7,88
2528.0,1160.0,15,63,7,88
2528.0,1160.0,15,63,7,88
2528.0,1160.0,15,63,7,88
2527.0,1158.0,15,63,7,88
2527.0,1158.0,15,63,7,88
2525.0,1157.0,15,63,7,88
2525.0,1157.0,15,63,7,88
2525.0,1157.0,15,62,7,88
2523.0,1155.0,15,62,7,88
2523.0,1155.0,15,62,7,88
2521.0,1154.0,15,62,7,88
2521.0,1154.0,15,62,7,88
2519.0,1152.0,15,62,7,88
2519.0,1152.0,15,62,7,88
2519.0,1152.0,14,63,7,88
2518.0,1151.0,15,67,7,88
2518.0,1151.0,15,67,7,87
2516.0,1150.0,15,67,7,87
2516.0,1150.0,15,67,7,87
2516.0,1150.0,14,67,7,87
2516.0,1150.0,15,67,7,87
2514.0,1148.0,15,67,7,87
2514.0,1148.0,15,66,7,87
2514.0,1148.0,14,66,7,87
2510.0,1145.0,14,66,7,87
2510.0,1145.0,15,66,7,87
2508.0,1143.0,14,66,7,86
2508.0,1143.0,14,66,7,86
2506.0,1141.0,14,65,7,86
2506.0,1141.0,14,66,7,86
2506.0,1141.0,14,65,7,86
2505.0,1139.0,14,65,7,86
2505.0,1139.0,15,65,7,86
2503.0,1138.0,14,65,7,86
2503.0,1138.0,14,65,7,86
2502.0,1137.0,15,65,7,86
2502.0,1137.0,14,65,7,86
2499.0,1135.0,14,65,7,85
2499.0,1135.0,14,65,7,85
2499.0,1135.0,14,65,7,85
2498.0,1134.0,14,65,7,85
2498.0,1134.0,14,65,7,85
2496.0,1132.0,14,65,7,84
2496.0,1132.0,14,64,7,84
2494.0,1131.0,14,64,7,84
2494.0,1131.0,14,64,7,84
2493.0,1128.0,14,64,7,84
2493.0,1128.0,14,63,7,84
2491.0,1127.0,14,63,7,84
2491.0,1127.0,14,63,7,84
2491.0,1127.0,14,63,7,83
2489.0,1126.0,14,63,7,83
2489.0,1126.0,14,63,7,83
2488.0,1124.0,14,63,7,83
2488.0,1124.0,14,63,7,83
2485.0,1122.0,14,63,7,83
2485.0,1122.0,14,63,7,83
2485.0,1122.0,14,63,7,83
2484.0,1120.0,14,63,7,83
2484.0,1120.0,14,63,7,83
2483.0,1119.0,14,63,7,83
2483.0,1119.0,14,63,7,83
2483.0,1119.0,14,63,7,83
2481.0,1118.0,14,63,7,83
2481.0,1118.0,14,63,7,83
2479.0,1116.0,14,63,7,83
2479.0,1116.0,14,63,7,83
2479.0,1116.0,14,63,7,83
2479.0,1116.0,14,63,7,83
2478.0,1115.0,14,63,7,83
2478.0,1115.0,14,63,7,82
2473.0,1110.0,14,63,7,82
2473.0,1110.0,14,63,7,82
2472.0,1109.0,14,63,7,82
2472.0,1109.0,14,63,7,82
2470.0,1107.0,14,63,7,82
2470.0,1107.0,14,63,7,81
2470.0,1107.0,14,63,7,82
2468.0,1105.0,14,63,7,81
2468.0,1105.0,14,63,7,81
2466.0,1103.0,14,63,7,81
2466.0,1103.0,14,63,7,81
2466.0,1103.0,14,63,7,81
2463.0,1100.0,14,62,7,81
2462.0,1099.0,14,62,7,81
2462.0,1099.0,14,62,7,81
2462.0,1099.0,14,62,7,81
2460.0,1098.0,14,62,7,81
2460.0,1098.0,14,62,7,81
2459.0,1096.0,14,62,7,81
2459.0,1096.0,14,62,7,81
2457.0,1094.0,13,62,7,80
2457.0,1094.0,14,62,7,80
2457.0,1094.0,13,62,7,80
2455.0,1092.0,13,62,7,80
2455.0,1092.0,13,62,7,80
2453.0,1090.0,14,61,7,80
2453.0,1090.0,13,61,7,79
2452.0,1089.0,13,61,7,79
2452.0,1089.0,13,61,7,79
2449.0,1087.0,13,61,7,79
2449.0,1087.0,14,61,7,79
2448.0,1086.0,13,61,7,83
2448.0,1086.0,13,61,7,85
2445.0,1082.0,13,61,7,85
2445.0,1082.0,13,60,7,85
2445.0,1082.0,13,60,7,84
2443.0,1081.0,13,68,7,84
2443.0,1081.0,13,68,7,84
2443.0,1081.0,13,67,6,84
2443.0,1081.0,13,67,6,84
2442.0,1080.0,13,67,7,84
2442.0,1080.0,13,67,7,84
2436.0,1074.0,13,67,7,84
2436.0,1074.0,13,67,7,83
2435.0,1073.0,13,67,6,83
2435.0,1073.0,13,67,6,83
2435.0,1073.0,13,67,6,83
2433.0,1071.0,13,67,6,83
2433.0,1071.0,13,67,6,83
2433.0,1071.0,13,67,7,83
2432.0,1070.0,13,67,6,83
2432.0,1070.0,13,67,6,83
2430.0,1067.0,13,67,6,83
2430.0,1067.0,13,67,6,83
2426.0,1065.0,13,67,6,83
2426.0,1065.0,13,66,6,83
2426.0,1065.0,13,66,6,83
2425.0,1063.0,13,66,6,83
2425.0,1063.0,13,66,6,83
2423.0,1062.0,13,66,6,82
2423.0,1062.0,13,66,6,82
2421.0,1060.0,13,65,6,82
2421.0,1060.0,13,65,6,82
2419.0,1057.0,13,65,6,82
2419.0,1057.0,12,65,6,81
2417.0,1056.0,13,65,6,81
2417.0,1056.0,13,65,6,81
2415.0,1054.0,12,65,6,81
2415.0,1054.0,13,65,6,81
2413.0,1051.0,12,65,6,81
2413.0,1051.0,12,65,6,81
2413.0,1051.0,12,65,6,81
2410.0,1050.0,12,65,6,81
2410.0,1050.0,12,65,6,81
2410.0,1050.0,12,65,6,81
2408.0,1047.0,12,65,6,81
2408.0,1047.0,12,64,6,81
2408.0,1047.0,12,64,6,81
2407.0,1046.0,12,64,6,88
2407.0,1046.0,12,64,6,88
2404.0,1044.0,12,64,6,88
2404.0,1044.0,12,64,6,88
2402.0,1041.0,12,64,6,88
2402.0,1041.0,12,64,6,88
2402.0,1041.0,12,63,6,88
2400.0,1040.0,12,63,6,88
2400.0,1040.0,12,63,6,88
2398.0,1038.0,12,63,6,88
2398.0,1038.0,12,63,6,88
2398.0,1038.0,12,63,6,88
2396.0,1036.0,12,63,6,88
2396.0,1036.0,12,63,6,87
2394.0,1034.0,12,63,6,87
2394.0,1034.0,12,63,6,87
2394.0,1034.0,12,63,6,87
2392.0,1033.0,12,63,6,87
2392.0,1033.0,12,63,6,87
2389.0,1030.0,12,63,6,87
2389.0,1030.0,12,63,6,87
2389.0,1030.0,12,63,6,86
2389.0,1030.0,12,63,6,86
2387.0,1028.0,12,63,6,86
2387.0,1028.0,12,63,6,86
2387.0,1028.0,12,63,6,86
2382.0,1024.0,12,63,6,86
2382.0,1024.0,12,63,6,86
2381.0,1022.0,12,63,6,86
2381.0,1022.0,12,63,6,86
2377.0,1019.0,12,63,6,85
2377.0,1019.0,12,62,6,85
2376.0,1017.0,12,62,6,85
2376.0,1017.0,12,62,6,85
2376.0,1017.0,12,62,6,85
2376.0,1017.0,12,62,6,84
2373.0,1015.0,12,62,6,84
2373.0,1015.0,12,62,6,84
2373.0,1015.0,12,62,6,84
2371.0,1013.0,12,62,6,84
2371.0,1013.0,12,62,6,84
2369.0,1010.0,12,62,6,84
2369.0,1010.0,12,62,6,84
2369.0,1010.0,12,62,6,84
2367.0,1009.0,12,61,6,83
2367.0,1009.0,12,61,6,83
2367.0,1009.0,12,61,6,86
2364.0,1007.0,12,61,6,86
2364.0,1007.0,12,61,6,86
2363.0,1005.0,12,61,6,86
2363.0,1005.0,12,70,6,86
2361.0,1003.0,12,70,6,86
2361.0,1003.0,12,70,6,85
2358.0,1001.0,12,70,6,85
2358.0,1001.0,12,70,6,85
2358.0,1001.0,12,70,6,85
2356.0,998.0,12,70,6,85
2356.0,998.0,12,69,6,84
2354.0,997.0,12,69,6,84
2354.0,997.0,12,69,6,84
2354.0,997.0,12,68,6,84
2352.0,995.0,12,69,6,84
2352.0,995.0,12,68,6,84
2350.0,993.0,12,68,6,84
2350.0,993.0,12,68,6,84
2348.0,991.0,12,68,6,83
2348.0,991.0,12,68,6,83
2348.0,991.0,12,68,6,83
2344.0,988.0,12,68,6,83
2344.0,988.0,11,68,6,83
2343.0,987.0,12,68,5,83
2343.0,987.0,12,67,6,83
2339.0,983.0,12,67,6,83
2339.0,983.0,12,67,6,83
2339.0,983.0,12,67,6,83
2337.0,982.0,12,67,6,83
2337.0,982.0,11,67,6,83
2336.0,980.0,12,67,6,83
2336.0,980.0,11,67,6,83
2333.0,978.0,11,67,6,83
2333.0,978.0,12,67,6,83
2333.0,978.0,11,67,6,83
2333.0,978.0,11,67,5,83
2330.0,975.0,11,67,5,82
2330.0,975.0,12,67,5,82
2325.0,970.0,11,67,6,82
2325.0,970.0,11,67,6,82
2323.0,968.0,11,67,5,82
2323.0,968.0,11,67,5,82
2321.0,966.0,11,66,5,81
2321.0,966.0,11,66,5,81
2321.0,966.0,11,66,5,81
2318.0,964.0,11,66,6,82
2316.0,961.0,11,66,5,82
2316.0,961.0,11,66,5,81
2316.0,961.0,11,66,5,81
2314.0,960.0,11,69,5,81
2314.0,960.0,11,69,5,81
2311.0,958.0,11,68,5,81
2311.0,958.0,11,68,5,81
2311.0,958.0,11,68,5,81
2308.0,955.0,11,68,5,81
2308.0,955.0,11,68,5,81
2306.0,954.0,11,68,5,81
2306.0,954.0,11,68,5,81
2305.0,951.0,11,68,5,80
2305.0,951.0,11,68,5,80
2301.0,949.0,11,68,5,80
2301.0,949.0,11,67,5,80
2301.0,949.0,11,67,5,80
2299.0,947.0,11,67,5,80
2299.0,947.0,11,67,5,79
2297.0,945.0,11,67,5,79
2294.0,942.0,11,67,5,79
2294.0,942.0,11,67,5,79
2292.0,940.0,11,67,5,79
2292.0,940.0,11,67,5,79
2292.0,940.0,11,67,5,79
2290.0,938.0,11,67,5,79
2290.0,938.0,11,67,5,79
2286.0,935.0,11,67,5,79
2286.0,935.0,11,67,5,79
2285.0,933.0,11,67,5,79
2285.0,933.0,11,67,5,79
2285.0,933.0,11,67,5,79
2282.0,931.0,11,67,5,79
2282.0,931.0,11,66,5,79
2280.0,930.0,11,66,5,79
2280.0,930.0,11,66,5,79
2279.0,928.0,11,66,5,79
2279.0,928.0,11,66,5,79
2276.0,925.0,11,66,5,79
2276.0,925.0,11,65,5,78
2273.0,923.0,11,65,5,78
2273.0,923.0,11,65,4,78
2273.0,923.0,11,65,5,78
2273.0,923.0,11,65,5,78
2273.0,923.0,11,65,5,78
2271.0,922.0,11,65,5,80
2271.0,922.0,11,65,5,81
2271.0,922.0,11,65,5,81
2264.0,916.0,11,65,4,81
2264.0,916.0,11,67,4,81
2263.0,914.0,11,67,5,81
2263.0,914.0,10,67,5,81
2263.0,914.0,10,67,5,81
2262.0,912.0,10,67,5,81
2262.0,912.0,11,67,5,80
2258.0,910.0,11,67,4,80
2258.0,910.0,10,67,5,80
2255.0,907.0,10,67,5,80
2255.0,907.0,11,66,4,80
2253.0,906.0,10,66,5,80
2253.0,906.0,10,66,4,80
2253.0,906.0,10,66,4,79
2252.0,904.0,10,66,4,79
2252.0,904.0,10,66,4,79
2249.0,901.0,10,66,4,79
2249.0,901.0,10,66,4,79
2246.0,899.0,10,65,4,79
2246.0,899.0,10,65,4,79
2244.0,897.0,10,65,4,79
2244.0,897.0,10,65,5,79
2244.0,897.0,10,65,4,79
2241.0,895.0,10,65,4,79
2241.0,895.0,10,65,4,79
2238.0,892.0,10,65,4,79
2238.0,892.0,10,65,4,79
2236.0,891.0,10,65,4,79
2236.0,891.0,10,65,4,79
2235.0,889.0,10,65,4,79
2235.0,889.0,10,65,4,79
2235.0,889.0,10,65,4,79
2231.0,886.0,10,64,4,79
2231.0,886.0,10,64,4,78
2229.0,884.0,10,64,4,78
2229.0,884.0,9,64,4,78
2228.0,882.0,10,64,4,78
2228.0,882.0,9,64,4,78
2225.0,881.0,9,63,4,78
2225.0,881.0,9,63,4,78
2222.0,878.0,10,63,4,78
2222.0,878.0,10,63,4,78
2220.0,876.0,9,63,4,78
2220.0,876.0,9,63,4,79
2220.0,876.0,9,63,4,81
2220.0,876.0,9,63,4,82
2217.0,875.0,9,63,4,81
2217.0,875.0,9,63,4,81
2215.0,872.0,9,63,4,81
2215.0,872.0,9,63,4,81
2209.0,867.0,9,63,4,81
2209.0,867.0,9,63,4,81
2209.0,867.0,9,63,4,81
2208.0,866.0,9,63,4,81
2208.0,866.0,9,63,4,80
2205.0,864.0,9,63,4,80
2205.0,864.0,9,63,4,80
2202.0,861.0,9,63,4,80
2202.0,861.0,9,63,4,80
2202.0,861.0,9,63,4,79
2200.0,859.0,9,63,4,79
2200.0,859.0,9,63,4,79
2198.0,858.0,9,63,4,79
2198.0,858.0,9,63,4,79
2195.0,856.0,9,63,4,79
2195.0,856.0,9,63,4,79
2195.0,856.0,9,63,4,79
2193.0,853.0,9,63,4,79
2193.0,853.0,9,63,4,79
2191.0,852.0,9,63,4,79
2191.0,852.0,9,62,4,79
2191.0,852.0,9,62,4,79
2189.0,850.0,9,62,4,79
2189.0,850.0,9,62,4,79
2186.0,848.0,9,62,4,79
2186.0,848.0,9,62,4,79
2185.0,846.0,9,62,4,79
2185.0,846.0,9,62,4,79
2185.0,846.0,9,62,4,78
2181.0,845.0,9,62,4,78
2181.0,845.0,9,62,4,78
2179.0,843.0,9,62,4,78
2179.0,843.0,9,62,4,78
2177.0,841.0,9,62,4,78
2177.0,841.0,9,62,4,78
2174.0,839.0,9,61,4,78
2174.0,839.0,9,61,4,78
2174.0,839.0,9,61,4,78
2172.0,837.0,9,61,4,78
2172.0,837.0,9,61,4,78
2171.0,836.0,9,61,4,78
2171.0,836.0,9,61,4,78
2168.0,833.0,9,61,4,77
2168.0,833.0,9,69,4,77
2165.0,832.0,9,69,4,77
2165.0,832.0,9,69,4,77
2163.0,830.0,9,69,4,77
2163.0,830.0,9,69,4,76
2161.0,828.0,9,68,4,76
2161.0,828.0,9,68,4,76
2158.0,827.0,9,68,4,76
2158.0,827.0,9,68,4,76
2158.0,827.0,9,68,4,76
2158.0,827.0,9,68,4,76
2157.0,825.0,9,68,4,76
2157.0,825.0,9,68,4,76
2157.0,825.0,9,68,4,76
2155.0,824.0,9,68,4,76
2155.0,824.0,9,67,4,76
2147.0,819.0,9,67,4,76
2147.0,819.0,9,67,4,76
2147.0,819.0,9,67,4,76
2147.0,819.0,9,67,4,76
2145.0,817.0,9,67,4,76
2145.0,817.0,9,67,4,75
2143.0,815.0,9,67,4,75
2143.0,815.0,9,67,4,75
2138.0,812.0,9,67,4,75
2138.0,812.0,8,67,4,75
2138.0,812.0,8,67,4,75
2135.0,809.0,9,67,4,75
2135.0,809.0,9,67,4,75
2133.0,807.0,9,67,4,75
2133.0,807.0,8,67,4,75
2129.0,806.0,8,67,4,75
2129.0,806.0,9,67,4,75
2128.0,804.0,8,66,4,75
2128.0,804.0,8,66,4,74
2125.0,802.0,8,66,4,74
2125.0,802.0,9,66,4,74
2123.0,801.0,8,66,3,74
2123.0,801.0,8,66,3,73
2123.0,801.0,8,66,3,73
2121.0,799.0,8,65,4,73
2118.0,797.0,9,65,4,73
2118.0,797.0,8,65,3,73
2118.0,797.0,8,65,3,73
2115.0,795.0,8,65,3,73
2115.0,795.0,8,65,3,73
2113.0,794.0,8,71,4,73
2113.0,794.0,8,71,3,73
2111.0,792.0,8,71,3,73
2111.0,792.0,8,71,3,73
2111.0,792.0,8,71,4,73
2103.0,786.0,8,71,3,73
2099.0,784.0,8,71,3,73
2096.0,782.0,8,71,3,73
2096.0,782.0,8,71,3,73
2096.0,782.0,8,71,3,73
2096.0,782.0,8,71,3,72
2096.0,782.0,8,71,3,72
2094.0,781.0,8,71,3,72
2094.0,781.0,8,71,3,72
2092.0,779.0,8,70,3,72
2092.0,779.0,8,70,3,71
2087.0,776.0,8,70,3,71
2087.0,776.0,8,70,3,71
2085.0,774.0,8,70,3,71
2085.0,774.0,8,70,3,71
2085.0,774.0,7,70,3,71
2083.0,773.0,7,70,3,71
2083.0,773.0,8,70,3,71
2080.0,770.0,7,70,3,71
2080.0,770.0,8,70,3,71
2080.0,770.0,7,70,3,71
2080.0,770.0,7,69,3,71
2077.0,769.0,8,69,3,71
2077.0,769.0,8,69,3,71
2077.0,769.0,7,69,3,71
2075.0,768.0,7,68,3,71
2075.0,768.0,7,68,3,71
2073.0,766.0,7,68,3,71
2073.0,766.0,7,68,3,71
2071.0,765.0,7,68,3,71
2071.0,765.0,7,68,3,71
2069.0,763.0,7,68,3,71
2065.0,762.0,7,68,3,71
2065.0,762.0,7,68,3,71
2065.0,762.0,7,68,3,71
2063.0,760.0,7,68,3,71
2063.0,760.0,7,68,3,71
2063.0,760.0,7,67,3,71
2060.0,759.0,7,67,3,71
2058.0,757.0,7,67,3,71
2058.0,757.0,7,67,3,71
2058.0,757.0,7,71,3,71
2057.0,756.0,7,71,3,70
2057.0,756.0,7,71,3,70
2055.0,755.0,7,71,3,70
2055.0,755.0,7,71,3,70
2055.0,755.0,7,71,3,70
2051.0,753.0,7,71,3,70
2051.0,753.0,7,71,3,70
2049.0,751.0,7,71,3,70
2049.0,751.0,7,71,3,70
2047.0,750.0,7,71,3,70
2047.0,750.0,7,71,3,70
2045.0,748.0,7,70,3,70
2045.0,748.0,7,70,3,70
2045.0,748.0,7,70,3,69
2045.0,748.0,7,70,3,69
2042.0,747.0,7,70,3,69
2042.0,747.0,7,70,3,69
2038.0,744.0,7,70,3,69
2038.0,744.0,7,70,3,69
2036.0,743.0,7,70,3,69
2036.0,743.0,7,70,3,69
2036.0,743.0,7,70,3,68
2031.0,741.0,7,69,3,68
2031.0,741.0,7,69,3,68
2031.0,741.0,7,69,3,68
2029.0,740.0,7,69,3,68
2029.0,740.0,7,68,3,68
2028.0,738.0,7,68,3,68
2028.0,738.0,7,68,3,68
2028.0,738.0,7,68,3,68
2025.0,737.0,7,68,3,68
2025.0,737.0,7,68,3,67
2022.0,736.0,7,68,3,67
2022.0,736.0,7,68,3,67
2021.0,735.0,7,68,3,67
2021.0,735.0,7,68,3,67
2021.0,735.0,7,68,3,67
2019.0,733.0,7,68,3,67
2019.0,733.0,7,67,3,67
2015.0,731.0,7,67,3,67
2015.0,731.0,7,67,3,67
2012.0,730.0,7,67,3,67
2012.0,730.0,7,67,3,67
2012.0,730.0,7,67,3,67
2011.0,729.0,7,67,3,67
2011.0,729.0,7,78,3,67
2011.0,729.0,7,77,3,67
2008.0,728.0,7,77,3,67
2008.0,728.0,7,77,3,67
2006.0,726.0,7,77,3,67
2006.0,726.0,7,77,3,67
2003.0,725.0,7,76,3,67
2003.0,725.0,7,76,3,67
2002.0,725.0,7,76,3,67
2002.0,725.0,7,76,3,67
2000.0,723.0,7,76,3,67
2000.0,723.0,7,76,3,67
2000.0,723.0,7,76,3,66
1998.0,722.0,7,76,3,66
1998.0,722.0,7,76,3,66
1998.0,722.0,7,76,3,66
1998.0,722.0,7,76,3,66
1993.0,720.0,7,76,3,66
1993.0,720.0,7,76,3,66
1987.0,717.0,7,76,3,66
1987.0,717.0,7,75,3,66
1985.0,716.0,7,75,3,65
1985.0,716.0,7,75,3,65
1985.0,716.0,7,75,3,65
1983.0,715.0,7,75,3,65
1983.0,715.0,7,75,3,65
1981.0,714.0,7,75,3,65
1981.0,714.0,7,75,3,65
1979.0,713.0,7,75,3,65
1979.0,713.0,7,75,3,65
1975.0,711.0,7,74,3,65
1975.0,711.0,7,74,3,65
1975.0,711.0,7,74,3,65
1973.0,710.0,7,74,3,65
1973.0,710.0,7,73,3,65
1973.0,710.0,7,73,3,65
1971.0,709.0,7,73,3,64
1971.0,709.0,7,73,3,64
1968.0,708.0,7,73,3,64
1968.0,708.0,7,73,3,64
1965.0,707.0,7,73,3,64
1964.0,706.0,7,73,3,64
1964.0,706.0,7,73,3,64
1964.0,706.0,7,73,3,65
1962.0,704.0,7,73,3,65
1962.0,704.0,7,73,3,65
1962.0,704.0,7,77,3,65
1960.0,704.0,7,77,3,65
1960.0,704.0,7,76,3,65
1955.0,702.0,7,76,3,65
1955.0,702.0,7,76,3,65
1953.0,701.0,7,76,3,65
1953.0,701.0,7,76,3,65
1951.0,700.0,7,76,3,65
1951.0,700.0,7,76,3,65
1949.0,698.0,7,76,3,65
1949.0,698.0,7,76,3,65
1946.0,698.0,7,76,3,65
1946.0,698.0,7,76,3,65
1946.0,698.0,7,76,3,64
1944.0,697.0,7,76,3,64
1944.0,697.0,7,76,3,64
1942.0,695.0,7,75,3,64
1942.0,695.0,7,75,3,63
1942.0,695.0,7,75,3,63
1940.0,695.0,7,75,3,63
1940.0,695.0,7,75,3,63
1936.0,693.0,7,75,3,63
1936.0,693.0,7,75,3,63
1934.0,692.0,7,75,3,63
1934.0,692.0,7,75,3,63
1934.0,692.0,7,75,3,63
1934.0,692.0,7,74,3,63
1934.0,692.0,7,74,3,63
1931.0,691.0,7,74,3,63
1931.0,691.0,7,74,3,63
1925.0,689.0,7,74,3,63
1925.0,689.0,7,73,3,63
1923.0,687.0,7,73,3,63
1923.0,687.0,7,73,3,63
1923.0,687.0,7,73,3,63
1920.0,686.0,7,73,3,63
1920.0,686.0,7,73,3,63
1917.0,685.0,7,73,3,63
1917.0,685.0,7,73,3,63
1915.0,683.0,7,73,3,63
1915.0,683.0,7,73,3,63
1912.0,683.0,7,73,3,63
1912.0,683.0,7,73,3,63
1912.0,683.0,7,73,3,67
1910.0,682.0,7,72,3,81
1910.0,682.0,7,72,3,81
1908.0,681.0,7,82,3,81
1908.0,681.0,7,81,3,81
1904.0,679.0,7,81,3,80
1904.0,679.0,7,81,3,80
1901.0,678.0,7,81,3,80
1901.0,678.0,7,81,3,79
1901.0,678.0,7,81,3,79
1899.0,677.0,7,81,3,79
1899.0,677.0,7,81,3,79
1897.0,676.0,7,80,3,79
1897.0,676.0,7,80,3,79
1895.0,675.0,7,80,3,79
1895.0,675.0,7,80,3,79
1891.0,673.0,7,79,3,79
1891.0,673.0,7,79,3,79
1891.0,673.0,7,79,3,79
1888.0,672.0,7,79,3,79
1888.0,672.0,7,79,3,79
1886.0,671.0,7,79,3,79
1886.0,671.0,7,79,3,79
1886.0,671.0,7,79,3,79
1883.0,670.0,7,79,3,79
1883.0,670.0,7,79,3,78
1882.0,670.0,7,79,3,78
1882.0,670.0,7,79,3,78
1879.0,669.0,7,79,3,78
1879.0,669.0,6,79,3,78
1875.0,667.0,7,79,3,78
1875.0,667.0,6,79,3,78
1875.0,667.0,7,79,3,78
1872.0,665.0,7,79,3,78
1872.0,665.0,7,78,3,78
1872.0,665.0,7,78,3,77
1872.0,665.0,6,78,3,77
1870.0,665.0,6,78,3,77
1870.0,665.0,7,78,3,77
1868.0,664.0,7,78,3,77
1868.0,664.0,6,78,3,77
1861.0,661.0,7,78,3,77
1861.0,661.0,7,78,3,76
1861.0,661.0,7,78,3,76
1859.0,660.0,7,78,3,76
1859.0,660.0,7,77,3,76
1859.0,660.0,6,77,3,76
1857.0,659.0,6,77,3,76
1857.0,659.0,7,78,3,76
1854.0,658.0,6,80,3,76
1854.0,658.0,6,80,3,76
1854.0,658.0,6,80,3,76
1851.0,657.0,6,80,3,76
1851.0,657.0,6,79,3,76
1851.0,657.0,6,79,3,76
1849.0,656.0,6,79,3,76
1849.0,656.0,6,79,3,76
1847.0,655.0,7,79,3,76
1847.0,655.0,7,79,3,75
1847.0,655.0,6,79,3,76
1844.0,654.0,6,79,3,75
1844.0,654.0,6,79,3,75
1841.0,653.0,6,79,3,75
1841.0,653.0,6,79,3,75
1839.0,651.0,6,79,2,75
1839.0,651.0,6,79,3,75
1836.0,651.0,6,79,3,75
1836.0,651.0,6,79,3,75
1836.0,651.0,6,79,2,75
1834.0,650.0,6,79,3,75
1833.0,649.0,6,78,3,75
1833.0,649.0,6,78,2,74
1833.0,649.0,6,78,3,74
1830.0,648.0,6,78,3,74
1830.0,648.0,6,78,3,74
1826.0,646.0,6,78,2,73
1826.0,646.0,6,78,3,73
1824.0,645.0,6,78,3,73
1824.0,645.0,6,78,3,73
1822.0,645.0,6,78,3,73
1822.0,645.0,6,78,3,73
1822.0,645.0,6,78,3,73
1819.0,643.0,6,77,3,73
1819.0,643.0,6,77,2,73
1817.0,642.0,6,77,2,73
1817.0,642.0,6,77,2,73
1815.0,642.0,6,77,2,73
1815.0,642.0,6,77,2,72
1815.0,642.0,6,77,2,73
1813.0,641.0,6,76,2,73
1813.0,641.0,6,76,3,72
1811.0,639.0,6,76,3,72
1811.0,639.0,6,76,2,72
1811.0,639.0,6,76,2,72
1808.0,638.0,6,76,2,74
1808.0,638.0,6,81,2,73
1808.0,638.0,6,81,2,73
1808.0,638.0,6,81,2,73
1805.0,637.0,6,81,2,73
1805.0,637.0,6,80,2,73
1799.0,634.0,6,80,2,73
1799.0,634.0,6,80,2,73
1799.0,634.0,6,80,2,73
1797.0,634.0,6,80,2,73
1797.0,634.0,6,79,2,73
1795.0,632.0,6,79,2,72
1795.0,632.0,6,79,2,73
1792.0,631.0,6,79,2,72
1792.0,631.0,6,79,2,72
1792.0,631.0,6,79,2,72
1791.0,631.0,6,79,2,72
1791.0,631.0,6,79,2,72
1789.0,629.0,6,79,2,71
1789.0,629.0,6,79,2,71
1789.0,629.0,6,79,2,71
1787.0,628.0,6,79,2,71
1787.0,628.0,6,79,2,71
1784.0,628.0,6,79,2,71
1784.0,628.0,6,79,2,71
1784.0,628.0,6,79,2,71
1782.0,626.0,6,79,2,71
1782.0,626.0,6,78,2,71
1780.0,625.0,6,78,2,71
1780.0,625.0,6,78,2,71
1779.0,625.0,6,78,2,71
1779.0,625.0,6,78,2,71
1776.0,623.0,6,78,2,71
1776.0,623.0,6,78,2,71
1772.0,622.0,6,78,2,71
1772.0,622.0,6,78,2,71
1772.0,622.0,6,78,2,71
1771.0,622.0,6,78,2,71
1771.0,622.0,6,77,2,71
1771.0,622.0,6,77,2,71
1769.0,619.0,6,77,2,71
1769.0,619.0,6,77,2,71
1767.0,619.0,6,77,2,71
1767.0,619.0,6,77,2,71
1764.0,618.0,6,77,2,70
1764.0,618.0,6,76,2,70
1762.0,616.0,6,76,2,71
1762.0,616.0,5,86,2,71
1760.0,616.0,6,86,2,71
1760.0,616.0,6,86,2,70
1757.0,614.0,6,85,2,70
1757.0,614.0,5,85,2,70
1757.0,614.0,6,85,2,70
1756.0,613.0,6,84,2,70
1754.0,613.0,6,84,2,70
1754.0,613.0,6,84,2,70
1754.0,613.0,5,84,2,70
1752.0,611.0,5,84,2,70
1752.0,611.0,6,84,2,70
1749.0,610.0,6,84,2,70
1749.0,610.0,6,84,2,70
1747.0,609.0,6,83,2,69
1747.0,609.0,5,83,2,70
1747.0,609.0,5,83,2,69
1747.0,609.0,6,83,2,69
1747.0,609.0,6,83,2,69
1745.0,608.0,5,83,2,69
1745.0,608.0,6,83,2,69
1743.0,607.0,6,83,2,68
1743.0,607.0,6,83,2,68
1741.0,605.0,6,83,2,68
1741.0,605.0,6,83,2,68
1739.0,605.0,6,83,2,68
1739.0,605.0,6,83,2,68
1735.0,603.0,5,83,2,68
1735.0,603.0,6,82,2,68
1735.0,603.0,6,83,2,68
1735.0,603.0,5,82,2,68
1733.0,601.0,6,82,2,68
1733.0,601.0,5,82,2,68
1731.0,600.0,6,82,2,67
1731.0,600.0,5,82,2,67
1729.0,599.0,6,81,2,67
1729.0,599.0,5,81,2,67
1727.0,598.0,6,81,2,67
1727.0,598.0,6,81,2,67
1727.0,598.0,6,81,2,67
1725.0,597.0,6,81,2,67
1725.0,597.0,6,81,2,67
1723.0,596.0,6,81,2,67
1723.0,596.0,5,81,2,67
1720.0,594.0,6,81,2,67
1720.0,594.0,6,81,2,71
1720.0,594.0,5,81,2,71
1720.0,594.0,5,81,2,71
1718.0,593.0,5,81,2,71
1718.0,593.0,5,80,2,71
1718.0,593.0,5,80,2,71
1716.0,592.0,5,80,2,71
1716.0,592.0,5,80,2,71
1713.0,590.0,5,80,2,71
1713.0,590.0,5,80,2,71
1713.0,590.0,5,80,2,71
1713.0,590.0,5,79,2,71
1712.0,589.0,5,79,2,71
1712.0,589.0,5,79,2,71
1709.0,588.0,5,79,2,71
1709.0,588.0,5,79,2,71
1707.0,587.0,5,79,2,70
1707.0,587.0,5,79,2,70
1707.0,587.0,5,79,2,70
1705.0,585.0,5,79,2,70
1705.0,585.0,5,79,1,70
1705.0,585.0,5,79,2,70
1705.0,585.0,5,79,2,70
1704.0,585.0,5,79,2,70
1704.0,585.0,5,79,2,70
1699.0,582.0,5,79,2,70
1699.0,582.0,5,79,2,70
1698.0,581.0,5,78,2,70
1698.0,581.0,5,78,2,70
1698.0,581.0,5,78,1,69
1697.0,581.0,5,78,2,69
1695.0,580.0,5,78,2,69
1695.0,580.0,5,78,2,69
1695.0,580.0,5,78,2,68
1693.0,579.0,5,78,2,69
1693.0,579.0,5,78,1,68
1692.0,577.0,5,78,2,68
1692.0,577.0,5,78,1,68
1692.0,577.0,5,78,2,68
1690.0,576.0,5,78,2,68
1690.0,576.0,5,77,2,68
1688.0,576.0,5,77,1,68
1688.0,576.0,5,77,2,68
1688.0,576.0,5,77,2,68
1687.0,574.0,5,77,1,67
1687.0,574.0,5,77,2,68
1686.0,574.0,5,77,1,73
1686.0,574.0,5,87,1,73
1684.0,573.0,5,87,1,72
1684.0,573.0,5,86,1,72
1682.0,572.0,5,86,1,72
1682.0,572.0,5,86,1,72
1681.0,570.0,5,86,1,71
1681.0,570.0,5,86,1,71
1681.0,570.0,5,86,1,71
1679.0,569.0,4,86,1,71
1679.0,569.0,4,86,1,71
1677.0,569.0,5,85,2,71
1677.0,569.0,5,85,1,71
1676.0,568.0,4,85,1,71
1676.0,568.0,5,85,1,71
1674.0,567.0,5,84,1,71
1674.0,567.0,4,85,2,71
1674.0,567.0,4,84,1,71
1673.0,566.0,5,84,1,71
1673.0,566.0,4,84,1,71
1672.0,565.0,4,84,1,71
1672.0,565.0,5,84,1,71
1671.0,565.0,4,84,1,71
1671.0,565.0,5,84,1,71
1670.0,564.0,4,83,1,71
1670.0,564.0,4,83,1,71
1668.0,563.0,4,83,1,71
1668.0,563.0,5,83,1,71
1666.0,561.0,5,83,1,71
1666.0,561.0,4,83,1,71
1666.0,561.0,4,83,1,70
1666.0,561.0,4,83,1,70
1666.0,561.0,4,83,1,70
1664.0,561.0,4,83,1,70
1664.0,561.0,4,83,1,70
1662.0,559.0,4,83,1,70
1662.0,559.0,4,83,1,70
1662.0,559.0,4,83,1,70
1662.0,559.0,4,83,1,70
1662.0,559.0,4,82,1,70
1660.0,558.0,4,82,1,70
1660.0,558.0,4,82,1,70
1658.0,556.0,4,82,1,69
1658.0,556.0,4,82,1,69
1656.0,555.0,4,82,1,69
1656.0,555.0,4,81,1,69
1656.0,555.0,4,81,1,69
1654.0,554.0,4,89,1,69
1654.0,554.0,4,89,1,69
1653.0,553.0,4,88,1,69
1653.0,553.0,4,88,1,68
1652.0,553.0,4,88,1,68
1652.0,553.0,4,88,1,68
1652.0,553.0,4,88,1,68
1650.0,551.0,4,88,1,68
1650.0,551.0,4,88,1,68
1649.0,551.0,4,88,1,68
1649.0,551.0,4,88,1,68
1649.0,551.0,4,88,1,68
1649.0,550.0,4,88,1,68
1649.0,550.0,4,88,1,68
1647.0,550.0,4,88,1,67
1647.0,550.0,4,88,1,67
1647.0,550.0,4,87,1,67
1645.0,548.0,4,87,1,67
1645.0,548.0,4,87,1,67
1644.0,547.0,4,87,1,67
1644.0,547.0,4,87,1,67
1644.0,547.0,4,87,1,67
1644.0,547.0,4,87,1,67
1644.0,547.0,4,86,1,67
1641.0,545.0,4,86,1,67
1641.0,545.0,4,86,1,67
1640.0,544.0,4,86,1,67
1640.0,544.0,4,86,1,67
1639.0,543.0,4,86,1,67
1639.0,543.0,4,86,1,67
1639.0,543.0,4,86,1,67
1639.0,543.0,4,86,1,67
1638.0,542.0,4,86,1,67
1638.0,542.0,4,85,1,67
1634.0,541.0,4,85,1,67
1634.0,541.0,4,85,1,67
1634.0,541.0,4,85,1,67
1634.0,540.0,4,85,1,67
1634.0,540.0,4,84,1,67
1632.0,539.0,4,84,1,67
1632.0,539.0,4,84,1,66
1631.0,538.0,4,84,1,66
1631.0,538.0,4,84,1,66
1631.0,538.0,4,84,1,66
1629.0,537.0,4,84,1,66
1629.0,537.0,6,84,1,66
1629.0,537.0,6,94,1,66
1628.0,536.0,7,93,1,66
1628.0,536.0,7,93,1,66
1627.0,536.0,7,93,1,66
1627.0,536.0,7,92,1,66
1626.0,535.0,7,92,1,66
1626.0,535.0,7,92,1,65
1625.0,534.0,7,92,1,65
1625.0,534.0,7,92,1,65
1625.0,534.0,7,92,1,65
1624.0,533.0,7,92,1,65
1624.0,533.0,7,92,1,65
1623.0,532.0,7,92,1,65
1623.0,532.0,7,92,1,65
1621.0,531.0,7,92,1,65
1621.0,531.0,7,92,1,65
1621.0,531.0,7,91,1,65
1619.0,530.0,7,91,1,65
1619.0,530.0,7,91,1,65
1619.0,529.0,7,91,1,65
1619.0,529.0,7,91,1,64
1617.0,528.0,7,91,1,65
1617.0,528.0,7,91,1,65
1616.0,527.0,7,91,1,65
1616.0,527.0,7,90,1,64
1616.0,527.0,7,90,1,64
1615.0,527.0,7,89,1,64
1615.0,527.0,7,89,1,64
1614.0,526.0,7,89,1,64
1614.0,526.0,7,89,1,64
1613.0,525.0,7,89,1,64
1613.0,525.0,7,89,1,63
1611.0,524.0,7,89,1,63
1611.0,524.0,7,89,1,63
1611.0,524.0,7,89,1,63
1611.0,524.0,7,89,1,63
1609.0,522.0,7,89,1,63
1609.0,522.0,7,88,1,63
1608.0,521.0,7,88,1,63
1608.0,521.0,7,88,1,63
1608.0,521.0,7,88,1,63
1608.0,521.0,7,88,1,63
1605.0,519.0,7,88,1,63
1605.0,519.0,7,88,1,63
1604.0,519.0,7,88,1,63
1604.0,519.0,7,88,1,63
1603.0,517.0,7,97,1,63
1603.0,517.0,7,96,1,63
1603.0,517.0,7,96,1,63
1603.0,517.0,7,96,1,63
1601.0,516.0,7,96,1,63
1601.0,516.0,7,96,1,63
1601.0,516.0,7,96,1,63
1599.0,515.0,7,95,1,63
1599.0,515.0,7,95,1,63
1599.0,514.0,7,95,1,63
1599.0,514.0,7,95,1,63
1598.0,514.0,7,95,1,63
1598.0,514.0,7,95,1,63
1598.0,514.0,7,95,1,63
1596.0,513.0,7,95,1,63
1596.0,513.0,7,95,1,63
1595.0,511.0,7,94,1,62
1595.0,511.0,7,94,1,62
1595.0,511.0,7,94,1,62
1595.0,511.0,7,94,1,62
1594.0,511.0,7,94,1,62
1594.0,511.0,7,94,1,62
1594.0,511.0,7,94,1,62
1593.0,510.0,7,94,1,62
1593.0,510.0,7,93,1,62
1592.0,509.0,7,93,1,62
1592.0,509.0,7,93,1,62
1590.0,508.0,7,93,1,62
1590.0,508.0,7,93,1,62
1590.0,507.0,7,93,1,62
1590.0,507.0,7,92,1,62
1590.0,507.0,7,92,1,62
1588.0,506.0,7,92,1,62
1588.0,506.0,7,92,1,62
1587.0,505.0,7,92,1,61
1587.0,505.0,7,92,1,61
1587.0,505.0,7,92,1,61
1587.0,505.0,7,92,1,61
1587.0,505.0,7,92,1,61
1587.0,505.0,7,92,1,61
1585.0,504.0,7,92,1,61
1585.0,504.0,7,92,1,61
1585.0,504.0,7,92,1,61
1583.0,502.0,7,91,1,60
1583.0,502.0,7,91,1,60
1582.0,501.0,7,91,1,61
1582.0,501.0,7,100,1,62
1580.0,501.0,7,99,1,63
1580.0,501.0,7,99,1,63
1580.0,501.0,7,99,1,63
1580.0,499.0,7,99,1,63
1580.0,499.0,7,99,1,63
1578.0,499.0,7,99,1,63
1578.0,499.0,7,99,1,63
1578.0,499.0,7,99,1,63
1578.0,499.0,7,99,1,63
1578.0,499.0,7,99,1,63
1576.0,497.0,7,98,1,63
1576.0,497.0,7,98,1,63
1575.0,496.0,7,98,1,63
1575.0,496.0,7,98,1,63
1575.0,496.0,7,97,1,63
1575.0,496.0,7,97,1,63
1575.0,496.0,7,97,1,63
1573.0,495.0,7,97,1,62
1572.0,494.0,7,97,1,62
1572.0,494.0,7,97,1,62
1570.0,493.0,7,97,1,62
1570.0,493.0,9,97,1,63
1570.0,492.0,9,97,1,63
1570.0,492.0,9,97,1,63
1570.0,492.0,9,96,1,62
1569.0,492.0,9,96,1,63
1569.0,492.0,9,96,1,62
1567.0,490.0,9,96,1,62
1567.0,490.0,9,96,1,62
1567.0,490.0,8,96,1,62
1567.0,490.0,9,96,1,62
1565.0,489.0,9,96,1,62
1565.0,489.0,9,96,1,62
1565.0,489.0,8,96,1,62
1565.0,488.0,9,95,1,62
1565.0,488.0,8,96,1,62
1564.0,488.0,9,95,1,62
1564.0,488.0,9,95,1,62
1564.0,487.0,8,95,1,62
1564.0,487.0,8,95,1,62
1564.0,487.0,9,95,1,62
1562.0,487.0,8,95,1,61
1561.0,486.0,8,95,1,61
1561.0,486.0,8,94,1,61
1561.0,486.0,8,94,1,61
1560.0,485.0,8,108,1,61
1559.0,484.0,8,107,1,61
1559.0,484.0,8,107,1,61
1558.0,483.0,8,107,1,61
1558.0,483.0,8,106,1,61
1558.0,483.0,8,106,1,60
1557.0,483.0,8,105,1,60
1557.0,483.0,8,105,1,60
1557.0,483.0,8,105,1,60
1556.0,481.0,8,105,1,60
1556.0,481.0,8,105,1,60
1556.0,481.0,8,105,1,60
1556.0,481.0,8,105,1,60
1555.0,481.0,8,105,1,60
1555.0,481.0,8,104,1,60
1554.0,480.0,8,104,1,60
1554.0,480.0,7,103,1,60
1554.0,480.0,7,103,1,60
1552.0,479.0,8,103,1,60
1552.0,479.0,8,103,1,60
1552.0,479.0,8,103,1,60
1552.0,479.0,8,103,1,60
1551.0,478.0,8,103,1,65
1551.0,478.0,8,103,1,67
1551.0,478.0,8,103,1,67
1551.0,478.0,7,103,1,67
1550.0,477.0,7,103,1,67
1550.0,477.0,7,103,1,67
1549.0,476.0,7,103,1,66
1549.0,476.0,7,103,1,66
1549.0,476.0,7,103,1,66
1548.0,476.0,7,103,1,66
1548.0,476.0,7,103,1,66
1548.0,475.0,7,103,1,66
1548.0,475.0,7,102,1,65
1548.0,475.0,7,102,1,65
1547.0,475.0,7,102,1,65
1547.0,475.0,7,102,1,65
1547.0,475.0,7,102,1,65
1546.0,474.0,7,102,1,65
1546.0,474.0,7,102,1,65
1545.0,473.0,7,101,1,65
1545.0,473.0,7,101,1,65
1545.0,473.0,7,101,1,65
1545.0,473.0,7,101,1,65
1544.0,472.0,7,101,1,65
1544.0,472.0,7,109,1,65
1544.0,472.0,7,109,1,64
1544.0,472.0,7,108,1,65
1544.0,472.0,7,108,1,64
1543.0,472.0,7,108,1,64
1543.0,471.0,7,108,1,64
1543.0,471.0,7,108,1,64
1543.0,471.0,7,108,1,63
1541.0,470.0,7,108,1,63
1541.0,470.0,7,108,1,63
1540.0,469.0,7,108,1,63
1540.0,469.0,7,107,1,63
1540.0,468.0,7,107,1,63
1540.0,468.0,7,107,1,63
1538.0,467.0,7,107,1,63
1538.0,467.0,7,107,1,63
1538.0,467.0,7,107,1,63
1538.0,467.0,7,107,1,63
1537.0,466.0,7,107,1,63
1537.0,466.0,7,106,1,63
1537.0,466.0,7,106,1,63
1537.0,466.0,7,105,1,63
1536.0,465.0,7,105,1,63
1536.0,465.0,7,105,1,63
1536.0,465.0,8,105,1,63
1536.0,465.0,8,105,1,63
1536.0,465.0,8,105,1,63
1535.0,464.0,8,105,1,63
1535.0,464.0,8,105,1,63
1533.0,463.0,8,105,1,63
1533.0,463.0,8,104,1,63
1533.0,463.0,7,104,1,63
1533.0,463.0,8,104,1,63
1532.0,462.0,7,103,1,63
1532.0,462.0,7,103,1,62
1532.0,462.0,7,103,1,62
1532.0,461.0,8,103,1,62
1532.0,461.0,7,103,1,62
1531.0,461.0,7,103,1,62
1531.0,461.0,7,103,1,62
1531.0,460.0,7,103,1,62
1531.0,460.0,7,103,1,62
1530.0,460.0,7,103,1,62
1530.0,460.0,7,103,1,62
1530.0,460.0,7,103,1,62
1529.0,459.0,7,105,1,62
1529.0,459.0,7,109,1,62
1529.0,459.0,7,108,1,62
1529.0,459.0,7,108,1,62
1528.0,458.0,7,108,1,62
1528.0,458.0,7,108,1,62
1528.0,457.0,7,108,1,62
1528.0,457.0,7,108,1,62
1528.0,457.0,7,108,1,62
1527.0,457.0,7,108,1,62
1527.0,457.0,7,107,1,62
1527.0,456.0,7,107,0,62
1527.0,456.0,7,107,1,62
1525.0,456.0,7,107,1,62
1525.0,456.0,7,107,1,62
1525.0,456.0,7,107,1,61
1525.0,455.0,7,107,1,62
1525.0,455.0,7,107,1,61
1524.0,454.0,7,106,1,61
1524.0,454.0,7,106,1,61
1524.0,454.0,7,105,1,61
1524.0,454.0,7,105,1,61
1523.0,453.0,7,105,1,61
1523.0,453.0,7,105,1,63
1523.0,453.0,7,105,0,63
1522.0,453.0,7,105,1,63
1522.0,453.0,7,105,1,63
1522.0,453.0,7,105,1,63
1522.0,453.0,7,105,1,63
1522.0,452.0,7,104,1,63
1522.0,452.0,7,104,1,63
1521.0,452.0,7,104,1,63
1521.0,452.0,7,103,1,63
1521.0,451.0,7,103,1,63
1521.0,451.0,7,103,1,63
1520.0,451.0,7,103,1,63
1520.0,451.0,7,103,0,63
1519.0,450.0,7,103,0,63
1519.0,450.0,7,103,0,63
1518.0,449.0,7,103,1,63
1518.0,449.0,7,103,1,62
1518.0,449.0,7,103,1,62
1518.0,449.0,7,103,1,62
1518.0,449.0,7,103,1,62
1518.0,449.0,7,103,1,62
1518.0,449.0,7,103,0,62
1518.0,449.0,7,103,0,62
1517.0,448.0,7,104,1,62
1517.0,448.0,7,103,1,65
1516.0,447.0,7,103,0,65
1516.0,447.0,7,103,0,65
1515.0,446.0,7,103,0,65
1515.0,446.0,7,103,0,65
1515.0,446.0,7,103,1,65
1515.0,446.0,7,103,0,65
1515.0,446.0,7,103,0,65
1515.0,446.0,7,103,1,64
1514.0,445.0,7,103,1,64
1514.0,445.0,7,103,1,64
1514.0,445.0,7,103,0,64
1513.0,445.0,7,103,1,64
1513.0,445.0,7,103,0,63
1512.0,444.0,7,103,0,63
1512.0,444.0,7,103,0,63
1512.0,444.0,7,103,0,63
1512.0,443.0,7,102,0,63
1512.0,443.0,7,102,0,63
1511.0,443.0,7,102,0,63
1511.0,443.0,7,102,0,63
1511.0,443.0,7,102,0,64
1510.0,442.0,7,102,0,70
1510.0,442.0,7,102,0,71
1510.0,442.0,7,102,0,70
1510.0,442.0,7,101,0,70
1509.0,442.0,7,101,0,70
1509.0,442.0,7,101,0,70
1509.0,442.0,7,101,0,70
1508.0,440.0,7,100,0,70
1508.0,440.0,7,100,0,70
1508.0,440.0,7,100,0,70
1508.0,440.0,7,100,0,70
1506.0,440.0,7,100,0,70
1506.0,440.0,7,100,0,70
1506.0,439.0,7,100,0,69
1506.0,439.0,7,99,0,69
1506.0,439.0,7,99,0,69
1506.0,439.0,7,99,0,69
1506.0,439.0,7,99,0,68
1505.0,439.0,7,99,0,68
1505.0,439.0,7,99,0,68
1505.0,438.0,7,99,0,68
1505.0,438.0,7,99,0,68
1505.0,438.0,7,99,0,68
1503.0,437.0,7,100,0,68
1503.0,437.0,7,100,0,68
1503.0,437.0,7,99,0,68
1503.0,437.0,7,99,0,68
1502.0,437.0,7,99,0,68
1502.0,437.0,7,99,0,68
1502.0,436.0,7,99,0,68
1502.0,436.0,7,99,0,68
1501.0,436.0,7,99,0,67
1501.0,436.0,7,99,0,67
1501.0,436.0,7,99,0,68
1501.0,436.0,7,99,0,67
1500.0,435.0,7,99,0,67
1500.0,435.0,7,99,0,67
1500.0,435.0,7,99,0,67
1499.0,435.0,7,98,0,67
1499.0,435.0,7,98,0,67
1499.0,434.0,7,98,0,67
1498.0,434.0,7,98,0,67
1498.0,434.0,7,98,0,67
1498.0,434.0,7,97,0,67
1497.0,433.0,7,97,0,67
1497.0,433.0,7,97,0,67
1496.0,433.0,7,97,0,71
1496.0,432.0,7,97,0,71
1496.0,432.0,7,97,0,71
1495.0,432.0,7,97,0,71
1495.0,432.0,7,97,0,71
1495.0,432.0,7,97,0,71
1495.0,432.0,7,96,0,71
1493.0,431.0,7,96,0,71
1493.0,431.0,7,96,0,71
1493.0,431.0,7,96,0,70
1493.0,431.0,7,96,0,70
1492.0,430.0,7,96,0,70
1492.0,430.0,7,96,0,70
1491.0,430.0,7,96,0,70
1491.0,430.0,7,96,0,70
1491.0,430.0,7,96,0,70
1491.0,429.0,7,96,0,70
1489.0,429.0,7,96,0,70
1489.0,429.0,7,96,0,70
1489.0,429.0,7,95,0,70
1489.0,429.0,7,95,0,70
1489.0,429.0,7,95,0,70
1489.0,429.0,7,95,0,69
1488.0,428.0,7,96,0,69
1488.0,428.0,7,95,0,71
1487.0,428.0,7,95,0,72
1487.0,428.0,7,95,0,72
1487.0,428.0,7,95,0,72
1487.0,428.0,7,95,0,71
1487.0,428.0,7,95,0,71
1486.0,427.0,7,95,0,71
1486.0,427.0,7,94,0,71
1485.0,427.0,7,94,0,71
1485.0,427.0,7,94,0,71
1485.0,427.0,7,94,0,71
1485.0,427.0,7,94,0,71
1485.0,426.0,7,94,0,71
1485.0,426.0,7,94,0,71
1485.0,426.0,7,94,0,71
1484.0,426.0,7,94,0,71
1484.0,426.0,7,94,0,71
1483.0,426.0,7,93,0,71
1483.0,426.0,7,93,0,71
1482.0,426.0,7,93,0,71
1482.0,426.0,7,93,0,71
1482.0,425.0,7,93,0,71
1482.0,425.0,7,93,0,71
1482.0,425.0,7,93,0,71
1480.0,425.0,7,92,0,71
1480.0,425.0,7,92,0,71
1480.0,425.0,7,92,0,71
1480.0,425.0,7,92,0,71
1479.0,424.0,7,92,0,71
1479.0,424.0,7,92,0,70
1479.0,424.0,7,92,0,70
1479.0,424.0,7,92,0,70
1479.0,424.0,6,92,0,70
1478.0,424.0,6,92,0,70
1478.0,424.0,7,92,0,70
1478.0,424.0,6,92,0,70
1477.0,423.0,7,92,0,70
1477.0,423.0,7,92,0,70
1476.0,423.0,7,91,0,70
1476.0,423.0,6,91,0,70
1476.0,423.0,6,91,0,70
1475.0,423.0,6,91,0,69
1475.0,423.0,6,91,0,69
1475.0,423.0,6,91,0,69
1475.0,422.0,6,91,0,69
1475.0,422.0,6,91,0,69
1475.0,422.0,7,91,0,69
1473.0,422.0,6,91,0,77
1473.0,422.0,6,91,0,77
1472.0,421.0,6,90,0,77
1472.0,421.0,6,90,0,77
1471.0,421.0,6,90,0,77
1471.0,421.0,6,89,0,76
1471.0,421.0,6,89,0,76
1471.0,421.0,6,89,0,76
1471.0,421.0,6,89,0,76
1470.0,421.0,6,89,0,76
1470.0,421.0,6,89,0,76
1470.0,421.0,7,89,0,76
1470.0,421.0,6,89,0,76
1468.0,420.0,6,89,0,76
1468.0,420.0,6,89,0,76
1468.0,420.0,6,89,0,76
1468.0,420.0,6,89,0,76
1468.0,420.0,6,88,0,76
1467.0,420.0,6,88,0,76
1467.0,420.0,6,88,0,75
1467.0,420.0,6,88,0,75
1467.0,420.0,6,88,0,76
1466.0,420.0,7,88,0,76
1466.0,420.0,7,88,0,76
1464.0,419.0,7,88,0,76
1463.0,419.0,7,88,0,76
1463.0,419.0,7,88,0,76
1462.0,419.0,6,88,0,76
1462.0,419.0,6,88,0,76
1462.0,419.0,7,88,0,76
1462.0,419.0,6,88,0,76
1461.0,418.0,7,88,0,76
1461.0,418.0,7,88,0,76
1460.0,418.0,7,88,0,76
1460.0,418.0,7,88,0,76
1460.0,418.0,6,87,0,76
1460.0,418.0,6,87,0,75
1460.0,418.0,6,87,0,75
1459.0,418.0,6,87,0,75
1459.0,418.0,7,87,0,75
1458.0,418.0,6,87,0,75
1458.0,418.0,6,86,0,75
1457.0,418.0,6,87,0,75
1457.0,418.0,6,87,0,75
1457.0,418.0,6,88,0,75
1457.0,418.0,6,88,0,75
1457.0,418.0,6,88,0,75
1456.0,417.0,6,88,0,75
1456.0,417.0,6,88,0,75
1456.0,417.0,7,87,0,75
1455.0,417.0,6,87,0,75
1455.0,417.0,6,87,0,75
1454.0,417.0,6,87,0,75
1454.0,417.0,6,87,0,74
1454.0,417.0,6,87,0,74
1454.0,417.0,7,87,0,74
1454.0,417.0,6,87,0,74
1453.0,417.0,6,86,0,73
1453.0,417.0,6,86,0,73
1453.0,417.0,6,86,0,73
1453.0,417.0,6,86,0,73
1451.0,417.0,6,86,0,73
1451.0,417.0,6,86,0,73
1451.0,416.0,6,86,0,73
1450.0,416.0,6,86,0,73
1450.0,416.0,6,86,0,73
1450.0,416.0,6,86,0,73
1448.0,416.0,6,86,0,73
1448.0,416.0,6,85,0,74
1448.0,415.0,6,85,0,74
1448.0,415.0,6,85,0,73
1447.0,415.0,6,85,0,73
1447.0,415.0,6,85,0,73
1447.0,415.0,6,84,0,73
1447.0,415.0,6,84,0,73
1447.0,415.0,6,84,0,73
1447.0,415.0,6,84,0,73
1445.0,415.0,6,84,0,73
1445.0,415.0,6,84,0,73
1445.0,415.0,6,84,0,73
1444.0,415.0,6,84,0,73
1444.0,415.0,6,84,0,73
1444.0,415.0,6,83,0,72
1444.0,415.0,6,83,0,72
1442.0,415.0,6,83,0,72
1442.0,415.0,6,83,0,72
1442.0,415.0,6,83,0,72
1442.0,414.0,6,83,0,71
1442.0,414.0,6,83,0,71
1441.0,414.0,6,83,0,71
1441.0,414.0,6,89,0,71
1440.0,414.0,6,89,0,71
1440.0,414.0,6,89,0,71
1440.0,414.0,6,89,0,71
1439.0,413.0,6,89,0,71
1439.0,413.0,6,89,0,71
1438.0,413.0,6,89,0,71
1438.0,413.0,6,88,0,71
1437.0,413.0,6,88,0,71
1437.0,413.0,6,88,0,71
1436.0,413.0,6,88,0,71
1436.0,413.0,6,88,0,71
1436.0,413.0,6,88,0,71
1436.0,413.0,6,88,0,71
1436.0,413.0,6,88,0,71
1435.0,413.0,6,88,0,71
1435.0,413.0,6,88,0,71
1435.0,413.0,6,88,0,71
1435.0,413.0,6,88,0,71
1434.0,413.0,6,88,0,71
1434.0,413.0,6,88,0,71
1433.0,413.0,6,88,0,71
1433.0,413.0,6,88,0,71
1433.0,413.0,6,87,0,75
1432.0,412.0,6,87,0,83
1432.0,412.0,6,87,0,86
1430.0,412.0,6,87,0,86
1430.0,412.0,6,87,0,86
1430.0,412.0,6,87,0,86
1430.0,412.0,6,87,0,86
1429.0,412.0,6,87,0,86
1429.0,412.0,6,86,0,86
1429.0,412.0,6,86,0,85
1429.0,412.0,6,86,0,85
1427.0,412.0,6,86,0,85
1427.0,412.0,6,86,0,85
1427.0,412.0,6,86,0,84
1427.0,412.0,6,86,0,84
1426.0,412.0,6,86,0,84
1426.0,412.0,6,86,0,84
1426.0,412.0,6,86,0,84
1426.0,412.0,6,85,0,84
1426.0,412.0,6,85,0,84
1424.0,411.0,6,85,0,83
1424.0,411.0,6,85,0,83
1424.0,411.0,6,86,0,83
1423.0,411.0,6,87,0,83
1423.0,411.0,6,86,0,83
1423.0,411.0,6,86,0,83
1421.0,411.0,6,86,0,83
1421.0,411.0,6,86,0,83
1421.0,411.0,6,86,0,83
1421.0,411.0,6,86,0,83
1420.0,411.0,6,86,0,83
1420.0,411.0,6,86,0,83
1419.0,411.0,6,85,0,83
1419.0,411.0,6,85,0,83
1419.0,411.0,6,85,0,83
1418.0,411.0,6,85,0,82
1418.0,411.0,6,85,0,82
1418.0,411.0,6,85,0,82
1418.0,411.0,6,84,0,82
1417.0,411.0,6,84,0,82
1417.0,411.0,6,84,0,82
1417.0,411.0,6,84,0,81
1416.0,410.0,6,84,0,81
1416.0,410.0,6,84,0,81
1415.0,410.0,6,84,0,81
1415.0,410.0,6,84,0,81
1414.0,410.0,6,83,0,81
1414.0,410.0,6,83,0,83
1414.0,410.0,6,83,0,83
1413.0,410.0,6,83,0,83
1413.0,410.0,6,83,0,83
1412.0,410.0,6,83,0,83
1412.0,410.0,6,83,0,83
1411.0,409.0,6,83,0,83
1411.0,409.0,6,83,0,83
1411.0,409.0,6,83,0,83
1411.0,409.0,6,83,0,83
1410.0,409.0,6,83,0,83
1410.0,409.0,6,83,0,83
1410.0,409.0,6,83,0,83
1410.0,409.0,6,83,0,83
1409.0,409.0,6,82,0,83
1409.0,409.0,6,82,0,82
1409.0,409.0,6,82,0,82
1407.0,409.0,6,82,0,82
1407.0,409.0,6,82,0,82
1405.0,409.0,6,82,0,82
1405.0,409.0,6,82,0,82
1405.0,409.0,6,82,0,81
1405.0,409.0,6,82,0,81
1404.0,409.0,6,82,0,81
1404.0,409.0,6,82,0,81
1404.0,409.0,6,82,0,81
1404.0,409.0,6,82,0,81
1403.0,409.0,6,82,0,81
1403.0,409.0,6,81,0,81
1402.0,409.0,6,81,0,81
1402.0,409.0,6,81,0,81
1401.0,409.0,6,81,0,81
1401.0,409.0,6,81,0,81
1401.0,409.0,6,81,0,80
1400.0,408.0,6,81,0,80
1400.0,408.0,6,81,0,80
1399.0,408.0,6,81,0,80
1399.0,408.0,6,81,0,80
1398.0,408.0,6,81,0,79
1398.0,408.0,6,81,0,79
1398.0,408.0,6,80,0,79
1398.0,408.0,6,80,0,79
1397.0,408.0,6,80,0,79
1397.0,408.0,6,80,0,79
1397.0,408.0,6,80,0,79
1396.0,408.0,5,79,0,79
1396.0,408.0,5,79,0,79
1396.0,408.0,6,79,0,79
1395.0,408.0,6,79,0,79
1395.0,408.0,5,79,0,79
1395.0,408.0,6,79,0,79
1395.0,408.0,6,79,0,79
1394.0,408.0,6,79,0,79
1394.0,408.0,6,79,0,79
1393.0,408.0,5,79,0,79
1393.0,408.0,5,79,0,79
1393.0,408.0,6,79,0,79
1392.0,408.0,5,79,0,79
1392.0,408.0,5,79,0,79
1392.0,408.0,5,79,0,79
1392.0,408.0,5,79,0,79
1392.0,408.0,6,79,0,79
1391.0,408.0,5,79,0,79
1391.0,408.0,6,79,0,79
1391.0,408.0,5,78,0,79
1391.0,408.0,6,78,0,78
1391.0,408.0,5,78,0,78
1389.0,407.0,5,78,0,78
1389.0,407.0,5,78,0,78
1387.0,407.0,5,78,0,78
1387.0,407.0,5,78,0,78
1387.0,407.0,5,78,0,78
1387.0,407.0,5,78,0,78
1387.0,407.0,5,78,0,78
1386.0,407.0,5,78,0,78
1386.0,407.0,6,78,0,78
1386.0,407.0,5,78,0,78
1384.0,407.0,5,78,0,78
1384.0,407.0,5,77,0,78
1383.0,407.0,5,77,0,77
1383.0,407.0,5,77,0,77
1383.0,407.0,5,77,0,77
1383.0,406.0,5,77,0,77
1383.0,406.0,5,77,0,77
1382.0,406.0,5,77,0,77
1382.0,406.0,5,76,0,77
1382.0,406.0,5,76,0,77
1381.0,406.0,5,76,0,76
1381.0,406.0,5,76,0,76
1381.0,406.0,5,76,0,76
1381.0,406.0,5,76,0,76
1380.0,406.0,5,76,0,76
1380.0,406.0,5,76,0,76
1379.0,406.0,5,76,0,76
1379.0,406.0,5,76,0,76
1378.0,406.0,5,76,0,76
1378.0,406.0,5,76,0,76
1378.0,406.0,5,76,0,76
1378.0,406.0,5,76,0,76
1378.0,406.0,5,76,0,76
1377.0,406.0,5,76,0,76
1377.0,406.0,5,76,0,76
1377.0,406.0,5,76,0,76
1375.0,406.0,5,75,0,76
1375.0,406.0,5,75,0,76
1375.0,406.0,5,75,0,76
1375.0,406.0,5,75,0,76
1375.0,406.0,5,75,0,75
1375.0,406.0,5,75,0,75
1374.0,406.0,5,75,0,75
1374.0,406.0,5,75,0,75
1373.0,406.0,5,75,0,75
1373.0,406.0,5,75,0,75
1373.0,406.0,5,75,0,75
1372.0,406.0,5,76,0,75
1372.0,406.0,5,76,0,75
1371.0,406.0,5,76,0,75
1371.0,406.0,5,76,0,75
1370.0,405.0,5,76,0,75
1370.0,405.0,5,76,0,75
1370.0,405.0,5,76,0,75
1369.0,405.0,5,76,0,75
1369.0,405.0,4,75,0,75
1369.0,405.0,4,75,0,75
1368.0,405.0,5,75,0,75
1368.0,405.0,4,75,0,74
1367.0,405.0,4,75,0,74
1367.0,405.0,5,75,0,74
1367.0,405.0,4,75,0,74
1367.0,405.0,4,75,0,74
1366.0,405.0,4,75,0,74
1366.0,405.0,5,74,0,73
1366.0,405.0,5,75,0,73
1366.0,405.0,5,74,0,73
1366.0,405.0,4,74,0,73
1365.0,405.0,4,74,0,73
1365.0,405.0,5,74,0,73
1364.0,405.0,4,74,0,73
1364.0,405.0,4,73,0,73
1364.0,405.0,5,73,0,73
1364.0,405.0,5,73,0,73
1364.0,405.0,5,73,0,73
1364.0,405.0,5,73,0,73
1363.0,405.0,5,73,0,73
1363.0,405.0,4,73,0,73
1363.0,405.0,5,73,0,73
1363.0,405.0,5,73,0,73
1361.0,404.0,4,73,0,73
1361.0,404.0,5,73,0,72
1361.0,404.0,5,73,0,72
1361.0,404.0,4,72,0,72
1361.0,404.0,4,72,0,72
1361.0,404.0,5,72,0,71
1360.0,404.0,5,72,0,71
1360.0,404.0,5,72,0,71
1360.0,404.0,4,72,0,71
1360.0,404.0,5,71,0,71
1360.0,404.0,4,71,0,71
1358.0,404.0,4,71,0,71
1358.0,404.0,4,71,0,71
1357.0,404.0,4,71,0,71
1357.0,404.0,4,71,0,71
1356.0,404.0,4,71,0,71
1356.0,404.0,5,71,0,76
1355.0,404.0,4,71,0,76
1355.0,404.0,4,71,0,76
1355.0,404.0,4,71,0,76
1355.0,404.0,4,71,0,76
1355.0,404.0,4,71,0,76
1354.0,404.0,4,71,0,76
1354.0,404.0,4,71,0,76
1354.0,404.0,4,71,0,76
1354.0,404.0,4,71,0,76
1353.0,404.0,4,71,0,76
1353.0,404.0,4,71,0,76
1353.0,404.0,4,71,0,75
1353.0,404.0,4,71,0,75
1352.0,404.0,4,71,0,75
1352.0,404.0,4,71,0,75
1352.0,404.0,4,71,0,75
1351.0,404.0,4,71,0,75
1351.0,404.0,4,71,0,75
1351.0,404.0,4,71,0,75
1351.0,404.0,4,71,0,75
1351.0,404.0,4,71,0,75
1350.0,404.0,4,70,0,75
1350.0,404.0,4,70,0,75
1349.0,404.0,4,70,0,75
1349.0,404.0,4,70,0,75
1349.0,404.0,4,70,0,75
1348.0,404.0,4,70,0,75
1348.0,404.0,4,70,0,74
1348.0,404.0,4,70,0,74
1348.0,404.0,4,70,0,74
1347.0,404.0,4,70,0,73
1347.0,404.0,4,70,0,73
1347.0,404.0,4,70,0,73
1347.0,404.0,4,70,0,73
1347.0,404.0,4,69,0,73
1346.0,404.0,4,69,0,73
1346.0,404.0,4,69,0,73
1346.0,404.0,4,69,0,73
1345.0,404.0,4,69,0,73
1345.0,404.0,4,69,0,73
1344.0,404.0,4,68,0,73
1344.0,404.0,4,68,0,73
1343.0,404.0,4,68,0,73
1343.0,404.0,4,68,0,73
1343.0,404.0,4,68,0,72
1343.0,404.0,4,68,0,72
1343.0,404.0,4,68,0,72
1342.0,404.0,4,68,0,72
1342.0,404.0,4,68,0,72
1342.0,404.0,4,68,0,72
1342.0,404.0,4,68,0,72
1342.0,404.0,4,68,0,71
1341.0,404.0,4,67,0,71
1341.0,404.0,4,67,0,71
1340.0,404.0,4,67,0,71
1340.0,404.0,4,67,0,71
1340.0,404.0,4,67,0,71
1340.0,404.0,4,67,0,71
1339.0,404.0,4,67,0,71
1339.0,404.0,4,67,0,71
1339.0,404.0,4,67,0,71
1339.0,404.0,4,67,0,71
1339.0,404.0,4,67,0,71
1338.0,404.0,4,67,0,71
1338.0,404.0,4,67,0,71
1338.0,404.0,4,67,0,71
1338.0,404.0,4,67,0,71
1336.0,404.0,4,67,0,73
1336.0,404.0,4,67,0,73
1336.0,404.0,4,67,0,73
1336.0,404.0,4,67,0,73
1336.0,404.0,4,67,0,73
1335.0,404.0,4,67,0,73
1335.0,404.0,4,67,0,73
1335.0,404.0,4,66,0,73
1335.0,404.0,4,66,0,73
1333.0,404.0,4,66,0,72
1333.0,404.0,4,66,0,72
1333.0,404.0,4,66,0,72
1332.0,404.0,4,66,0,72
1332.0,404.0,4,66,0,72
1332.0,404.0,4,66,0,71
1332.0,404.0,4,65,0,71
1332.0,404.0,4,65,0,71
1332.0,404.0,4,65,0,71
1331.0,404.0,4,65,0,71
1331.0,404.0,4,65,0,71
1330.0,404.0,4,65,0,71
1330.0,404.0,4,65,0,71
1330.0,404.0,4,65,0,71
1329.0,404.0,3,65,0,71
1329.0,404.0,4,65,0,71
1328.0,404.0,4,65,0,71
1328.0,404.0,4,65,0,71
1327.0,404.0,4,65,0,71
1327.0,404.0,4,65,0,71
1327.0,404.0,4,65,0,71
1327.0,404.0,3,65,0,71
1327.0,404.0,4,65,0,71
1326.0,404.0,3,64,0,71
1326.0,404.0,4,64,0,71
1325.0,404.0,3,64,0,71
1325.0,404.0,4,64,0,71
1325.0,404.0,3,64,0,71
1325.0,404.0,4,64,0,71
1324.0,404.0,3,64,0,71
1324.0,404.0,4,63,0,71
1324.0,404.0,4,63,0,70
1323.0,404.0,4,63,0,70
1323.0,404.0,3,63,0,70
1322.0,404.0,3,63,0,70
1322.0,404.0,3,63,0,70
1322.0,404.0,4,63,0,70
1322.0,404.0,4,63,0,71
1322.0,404.0,4,63,0,71
1322.0,404.0,4,63,0,71
1320.0,405.0,4,63,0,71
1319.0,405.0,3,63,0,71
1319.0,405.0,3,63,0,71
1319.0,405.0,4,63,0,71
1319.0,405.0,4,63,0,70
1319.0,405.0,4,63,0,70
1318.0,405.0,3,63,0,70
1318.0,405.0,3,63,0,70
1317.0,405.0,3,63,0,70
1317.0,405.0,3,63,0,70
1317.0,405.0,3,63,0,70
1317.0,405.0,4,63,0,70
1317.0,405.0,4,63,0,70
1316.0,405.0,3,63,0,70
1316.0,405.0,3,63,0,70
1315.0,405.0,3,63,0,70
1315.0,405.0,3,62,0,69
1315.0,405.0,3,65,0,69
1315.0,405.0,3,70,0,69
1314.0,406.0,3,70,0,69
1314.0,406.0,3,69,0,69
1314.0,406.0,3,69,0,69
1314.0,406.0,3,69,0,69
1312.0,406.0,3,69,0,69
1312.0,406.0,3,68,0,69
1311.0,406.0,3,68,0,69
1311.0,406.0,3,68,0,69
1311.0,406.0,3,68,0,68
1310.0,407.0,3,68,0,68
1310.0,407.0,3,68,0,68
1310.0,407.0,3,68,0,68
1310.0,407.0,3,68,0,68
1309.0,407.0,3,68,0,68
1309.0,407.0,3,67,0,68
1308.0,408.0,3,67,0,68
1308.0,408.0,3,67,0,68
1307.0,408.0,4,67,0,68
1307.0,408.0,3,67,0,68
1307.0,408.0,3,67,0,68
1307.0,408.0,3,67,0,67
1307.0,408.0,3,67,0,67
1306.0,408.0,3,67,0,67
1306.0,408.0,3,67,0,67
1305.0,408.0,3,67,0,67
1305.0,408.0,3,67,0,67
1304.0,409.0,3,67,0,67
1304.0,409.0,3,67,0,67
1304.0,409.0,3,67,0,67
1302.0,409.0,4,67,0,67
1302.0,409.0,3,67,0,67
1302.0,409.0,3,67,0,67
1301.0,409.0,3,67,0,67
1301.0,409.0,3,67,0,67
1301.0,409.0,3,66,0,67
1300.0,410.0,3,66,0,67
1300.0,410.0,3,66,0,67
1300.0,410.0,3,66,0,67
1299.0,410.0,3,66,0,67
1299.0,410.0,3,66,0,67
1299.0,410.0,3,66,0,67
1299.0,410.0,3,65,0,67
1298.0,410.0,3,65,0,66
1298.0,410.0,3,65,0,66
1298.0,410.0,3,65,0,66
1297.0,411.0,3,65,0,66
1297.0,411.0,3,65,0,66
1296.0,411.0,3,65,0,66
1296.0,411.0,3,65,0,66
1296.0,411.0,3,65,0,66
1295.0,412.0,3,65,0,66
1295.0,412.0,3,65,0,66
1295.0,412.0,4,65,0,66
1293.0,412.0,3,65,0,66
1293.0,412.0,3,65,0,66
1293.0,412.0,3,65,0,66
1293.0,412.0,3,65,0,65
1292.0,413.0,3,64,0,65
1292.0,413.0,3,64,0,65
1292.0,413.0,3,64,0,65
1292.0,413.0,3,64,0,65
1290.0,413.0,3,64,0,65
1290.0,413.0,3,64,0,65
1290.0,413.0,3,63,0,65
1290.0,414.0,3,63,0,65
1290.0,414.0,3,63,0,65
1289.0,414.0,3,63,0,65
1289.0,414.0,3,63,0,65
1289.0,415.0,3,63,0,65
1289.0,415.0,3,63,0,65
1289.0,415.0,3,63,0,65
1288.0,415.0,3,63,0,71
1288.0,415.0,3,63,0,71
1288.0,415.0,3,63,0,71
1288.0,415.0,3,63,0,71
1286.0,415.0,3,63,0,71
1286.0,415.0,3,63,0,71
1286.0,415.0,3,63,0,71
1286.0,416.0,3,63,0,71
1286.0,416.0,3,63,0,71
1284.0,416.0,3,63,0,71
1284.0,416.0,3,63,0,71
1284.0,417.0,3,63,0,71
1284.0,417.0,3,63,0,71
1284.0,417.0,3,63,0,71
1283.0,418.0,3,63,0,71
1283.0,418.0,3,63,0,71
1282.0,418.0,3,63,0,71
1282.0,418.0,3,63,0,71
1282.0,418.0,3,62,0,71
1282.0,418.0,3,62,0,71
1281.0,418.0,3,62,0,71
1281.0,418.0,3,62,0,71
1280.0,419.0,3,62,0,71
1280.0,419.0,3,62,0,70
1280.0,419.0,3,62,0,70
1280.0,419.0,3,62,0,70
1280.0,419.0,3,62,0,70
1279.0,419.0,3,62,0,70
1279.0,419.0,3,62,0,70
1279.0,420.0,3,62,0,70
1279.0,420.0,3,62,0,70
1279.0,420.0,3,62,0,70
1277.0,420.0,3,62,0,70
1277.0,420.0,3,61,0,70
1277.0,421.0,3,61,0,70
1277.0,421.0,3,61,0,69
1276.0,422.0,3,61,0,69
1276.0,422.0,3,61,0,69
1275.0,422.0,3,61,0,69
1275.0,422.0,3,61,0,68
1275.0,422.0,3,61,0,69
1275.0,422.0,3,61,0,68
1275.0,422.0,3,60,0,68
1275.0,422.0,3,60,0,68
1273.0,423.0,3,60,0,68
1273.0,423.0,3,60,0,68
1273.0,423.0,3,60,0,70
1273.0,423.0,3,60,0,71
1272.0,424.0,3,60,0,71
1272.0,424.0,3,60,0,71
1272.0,424.0,3,60,0,71
1271.0,425.0,3,60,0,70
1271.0,425.0,3,60,0,70
1269.0,426.0,3,60,0,70
1269.0,427.0,3,60,0,70
1269.0,427.0,3,60,0,70
1269.0,427.0,3,60,0,70
1267.0,427.0,3,60,0,70
1267.0,427.0,3,60,0,70
1267.0,428.0,3,60,0,70
1266.0,428.0,3,60,0,70
1266.0,428.0,3,60,0,70
1266.0,429.0,3,60,0,69
1266.0,429.0,3,59,0,69
1266.0,429.0,3,59,0,69
1265.0,429.0,3,59,0,69
1265.0,429.0,3,59,0,69
1264.0,430.0,3,59,0,69
1264.0,430.0,3,59,0,68
1264.0,430.0,3,59,0,68
1264.0,431.0,3,59,0,70
1264.0,431.0,3,59,0,71
1264.0,431.0,3,59,0,73
1263.0,431.0,3,59,0,73
1263.0,431.0,3,59,0,73
1263.0,432.0,3,59,0,73
1262.0,432.0,3,59,0,73
1262.0,432.0,3,59,0,73
1262.0,432.0,3,59,0,73
1262.0,433.0,3,59,0,73
1262.0,433.0,3,59,0,72
1261.0,433.0,3,58,0,72
1261.0,433.0,3,58,0,72
1260.0,434.0,3,58,0,71
1260.0,434.0,3,58,0,71
1260.0,435.0,3,58,0,71
1260.0,435.0,3,57,0,71
1260.0,435.0,3,57,0,71
1259.0,435.0,3,57,0,71
1259.0,435.0,3,57,0,71
1259.0,436.0,3,57,0,71
1259.0,436.0,3,57,0,71
1259.0,436.0,3,57,0,71
1259.0,436.0,4,57,0,71
1259.0,436.0,3,57,0,71
1259.0,436.0,4,57,0,71
1259.0,436.0,4,57,0,71
1258.0,437.0,3,57,0,71
1258.0,437.0,3,57,0,71
1258.0,437.0,3,57,0,71
1258.0,437.0,3,57,0,71
1257.0,438.0,3,57,0,71
1257.0,438.0,4,57,0,71
1256.0,439.0,3,57,0,71
1256.0,439.0,3,56,0,71
1256.0,439.0,3,56,0,71
1256.0,439.0,3,56,0,71
1256.0,439.0,3,56,0,71
1256.0,440.0,3,56,0,71
1256.0,440.0,3,56,0,71
1256.0,440.0,3,56,0,71
1255.0,440.0,4,56,0,71
1255.0,440.0,3,56,0,71
1255.0,441.0,3,56,0,71
1255.0,441.0,3,56,0,71
1255.0,441.0,3,56,0,71
1254.0,442.0,3,56,0,70
1254.0,442.0,3,56,0,70
1253.0,442.0,3,56,0,70
1253.0,442.0,3,56,0,70
1253.0,443.0,3,56,0,70
1253.0,443.0,3,56,0,70
1253.0,444.0,3,56,0,70
1253.0,444.0,3,56,0,70
1253.0,444.0,3,56,0,70
1253.0,444.0,3,56,0,70
1253.0,444.0,3,56,0,70
1252.0,445.0,3,56,0,70
1252.0,445.0,3,56,0,69
1252.0,446.0,3,56,0,69
1252.0,446.0,3,56,0,69
1251.0,446.0,3,56,0,69
1251.0,446.0,3,55,0,69
1251.0,447.0,3,55,0,68
1251.0,447.0,3,55,0,68
1250.0,447.0,3,55,0,68
1250.0,447.0,3,55,0,68
1250.0,448.0,3,55,0,68
1250.0,448.0,3,55,0,74
1250.0,448.0,3,55,0,86
1250.0,449.0,3,55,0,86
1250.0,449.0,3,55,0,86
1250.0,449.0,3,55,0,86
1249.0,450.0,3,55,0,86
1249.0,450.0,3,55,0,85
1249.0,450.0,3,55,0,85
1249.0,450.0,3,54,0,85
1248.0,452.0,3,54,0,85
1248.0,452.0,3,54,0,85
1248.0,452.0,3,54,0,84
1248.0,452.0,3,54,0,84
1247.0,453.0,3,54,0,84
1247.0,453.0,3,54,0,84
1247.0,453.0,3,54,0,84
1247.0,453.0,3,54,0,84
1247.0,453.0,3,54,0,84
1247.0,454.0,3,54,0,84
1247.0,454.0,3,54,0,83
1247.0,455.0,3,54,0,83
1247.0,455.0,3,54,0,83
1247.0,455.0,3,54,0,83
1246.0,456.0,3,54,0,83
1246.0,456.0,3,54,0,83
1246.0,457.0,3,54,0,83
1246.0,457.0,3,54,0,83
1246.0,457.0,3,54,0,83
1246.0,458.0,3,53,0,83
1246.0,458.0,3,53,0,83
1246.0,458.0,3,53,0,83
1246.0,459.0,3,53,0,83
1246.0,459.0,3,53,0,83
1246.0,459.0,3,52,0,83
1246.0,459.0,3,53,0,82
1246.0,459.0,3,52,0,82
1245.0,459.0,3,52,0,82
1245.0,459.0,3,52,0,82
1245.0,460.0,3,52,0,82
1245.0,460.0,3,52,0,82
1245.0,460.0,3,52,0,81
1245.0,461.0,3,52,0,81
1245.0,462.0,3,52,0,81
1245.0,462.0,3,52,0,81
1245.0,462.0,3,52,0,81
1245.0,462.0,3,52,0,81
1245.0,462.0,4,52,0,81
1245.0,462.0,9,52,0,81
1245.0,462.0,10,52,0,81
1245.0,462.0,11,52,0,81
1245.0,462.0,11,51,0,81
1245.0,462.0,11,51,0,81
1245.0,462.0,11,51,0,80
1245.0,462.0,11,51,0,80
1245.0,462.0,10,51,0,80
1245.0,462.0,11,51,0,80
1245.0,462.0,11,51,0,80
1245.0,462.0,10,51,0,79
1245.0,462.0,10,51,0,79
1245.0,462.0,10,51,0,79
1245.0,462.0,10,51,0,79
1241.0,474.0,10,51,0,79
1241.0,474.0,10,51,0,79
1241.0,474.0,10,51,0,79
1241.0,474.0,10,51,0,79
1241.0,474.0,9,51,0,79
1241.0,474.0,10,51,0,79
1241.0,474.0,10,51,0,79
1241.0,474.0,10,51,0,79
1241.0,474.0,10,51,0,79
1241.0,474.0,10,51,0,79
1241.0,474.0,10,51,0,81
1241.0,474.0,10,51,0,86
1241.0,474.0,10,51,0,86
1241.0,474.0,10,51,0,85
1241.0,474.0,9,51,0,85
1241.0,474.0,9,51,0,85
1241.0,474.0,10,50,0,84
1241.0,476.0,9,50,0,84
1241.0,476.0,9,50,0,84
1241.0,476.0,9,50,0,84
1241.0,476.0,9,50,0,84
1239.0,489.0,9,50,0,84
1239.0,489.0,9,50,0,84
1239.0,489.0,9,50,0,83
1239.0,489.0,9,50,0,83
1239.0,489.0,9,50,0,83
1239.0,489.0,9,50,0,83
1239.0,489.0,9,49,0,83
1239.0,489.0,9,49,0,83
1239.0,489.0,9,50,0,83
1239.0,489.0,9,49,0,83
1239.0,489.0,9,49,0,83
1239.0,489.0,9,49,0,83
1239.0,489.0,9,49,0,83
1239.0,489.0,9,49,0,83
1239.0,489.0,9,49,0,83
1239.0,489.0,9,49,0,83
1239.0,489.0,9,49,0,83
1239.0,489.0,9,49,0,83
1239.0,489.0,9,49,0,83
1239.0,489.0,9,49,0,83
1239.0,489.0,9,49,0,83
1239.0,489.0,9,49,0,83
1239.0,489.0,9,49,0,82
1239.0,489.0,9,49,0,82
1238.0,503.0,9,49,0,82
1238.0,503.0,9,49,0,82
1238.0,503.0,9,49,0,82
1238.0,503.0,9,48,0,82
1238.0,503.0,9,48,0,81
1238.0,503.0,9,48,0,81
1238.0,503.0,9,48,0,81
1238.0,503.0,9,48,0,81
1238.0,503.0,9,48,0,81
1238.0,503.0,9,48,0,81
1238.0,503.0,9,48,0,81
1238.0,503.0,9,48,0,81
1238.0,503.0,9,48,0,81
1238.0,503.0,9,48,0,81
1238.0,503.0,9,48,0,81
1238.0,503.0,9,48,0,81
1238.0,503.0,9,48,0,81
1238.0,503.0,9,48,0,81
1238.0,503.0,9,48,0,81
1238.0,503.0,9,48,0,81
1238.0,503.0,9,48,0,81
1238.0,504.0,9,48,0,80
1238.0,504.0,9,48,0,80
1238.0,504.0,9,48,0,80
1238.0,518.0,9,48,0,80
1238.0,518.0,9,48,0,80
1238.0,518.0,9,48,0,80
1238.0,518.0,9,47,0,80
1238.0,518.0,9,47,0,79
1238.0,518.0,9,47,0,79
1238.0,518.0,9,47,0,79
1238.0,518.0,9,47,0,79
1238.0,518.0,9,47,0,79
1238.0,518.0,9,47,0,80
1238.0,518.0,9,47,0,81
1238.0,518.0,9,47,0,81
1238.0,518.0,9,47,0,80
1238.0,518.0,9,47,0,80
1238.0,518.0,9,47,0,80
1238.0,518.0,9,47,0,80
1238.0,518.0,9,47,0,80
1238.0,518.0,9,47,0,79
1238.0,518.0,9,47,0,79
1238.0,518.0,9,47,0,79
1238.0,518.0,9,47,0,79
1238.0,519.0,9,46,0,79
1238.0,519.0,9,46,0,79
1238.0,519.0,9,47,0,79
1238.0,539.0,8,46,0,79
1238.0,539.0,8,46,0,79
1238.0,539.0,9,46,0,79
1238.0,539.0,9,46,0,79
1238.0,539.0,9,46,0,79
1238.0,539.0,8,46,0,79
1238.0,539.0,9,46,0,79
1238.0,539.0,8,46,0,79
1238.0,539.0,9,46,0,79
1238.0,539.0,8,46,0,79
1238.0,539.0,9,46,0,79
1238.0,539.0,8,46,0,79
1238.0,539.0,9,46,0,79
1238.0,539.0,8,46,0,78
1238.0,539.0,8,46,0,78
1238.0,539.0,8,46,0,78
1238.0,539.0,8,46,0,78
1238.0,539.0,9,46,0,78
1238.0,539.0,8,46,0,78
1238.0,539.0,9,45,0,78
1238.0,539.0,8,45,0,78
1238.0,539.0,8,45,0,78
1241.0,559.0,8,45,0,78
1241.0,559.0,8,45,0,78
1241.0,559.0,8,45,0,77
1242.0,560.0,8,45,0,77
1242.0,560.0,8,45,0,77
1242.0,560.0,8,45,0,77
1242.0,562.0,8,45,0,77
1242.0,562.0,8,45,0,77
1242.0,562.0,8,45,0,77
1242.0,562.0,8,45,0,76
1242.0,562.0,8,45,0,79
1243.0,565.0,8,45,0,78
1243.0,565.0,8,44,0,78
1243.0,566.0,8,44,0,78
1243.0,566.0,8,44,0,78
1243.0,566.0,8,44,0,78
1243.0,567.0,8,44,0,78
1243.0,567.0,7,44,0,78
1243.0,568.0,8,44,0,78
1243.0,568.0,8,44,0,78
1243.0,568.0,7,44,0,77
1244.0,570.0,8,44,0,77
1244.0,570.0,7,44,0,77
1244.0,571.0,7,44,0,77
1244.0,571.0,7,44,0,77
1244.0,571.0,7,44,0,77
1245.0,573.0,7,44,0,76
1245.0,573.0,7,44,0,77
1245.0,573.0,7,44,0,76
1245.0,575.0,7,44,0,76
1245.0,575.0,8,44,0,76
1245.0,575.0,7,44,0,76
1245.0,577.0,7,44,0,76
1245.0,577.0,7,44,0,76
1246.0,578.0,7,44,0,81
1246.0,578.0,7,44,0,82
1246.0,579.0,7,44,0,82
1246.0,579.0,7,44,0,81
1247.0,581.0,7,44,0,81
1247.0,581.0,7,44,0,81
1247.0,581.0,7,44,0,81
1247.0,583.0,7,43,0,81
1247.0,583.0,7,43,0,81
1247.0,583.0,7,43,0,81
1247.0,583.0,7,43,0,81
1247.0,583.0,7,43,0,81
1247.0,585.0,7,43,0,81
1247.0,585.0,7,43,0,80
1247.0,585.0,7,43,0,80
1248.0,587.0,7,43,0,80
1248.0,587.0,7,43,0,80
1248.0,587.0,7,43,0,80
1248.0,587.0,7,43,0,80
1249.0,589.0,7,43,0,79
1249.0,589.0,7,43,0,79
1249.0,589.0,7,43,0,79
1249.0,590.0,7,43,0,81
1249.0,590.0,7,43,0,83
1249.0,592.0,7,43,0,83
1249.0,592.0,7,43,0,82
1250.0,594.0,7,43,0,82
1250.0,594.0,7,43,0,82
1250.0,595.0,7,43,0,82
1250.0,595.0,7,42,0,82
1251.0,597.0,7,42,0,81
1251.0,597.0,7,42,0,81
1251.0,598.0,7,42,0,81
1251.0,598.0,7,42,0,81
1251.0,599.0,7,42,0,81
1251.0,599.0,7,42,0,81
1252.0,601.0,7,42,0,81
1252.0,601.0,7,41,0,81
1252.0,601.0,7,41,0,81
1253.0,603.0,7,41,0,81
1253.0,603.0,7,41,0,81
1253.0,604.0,7,41,0,81
1253.0,604.0,7,41,0,80
1253.0,604.0,7,41,0,80
1253.0,605.0,7,41,0,80
1253.0,605.0,7,41,0,80
1253.0,605.0,7,41,0,83
1253.0,605.0,7,41,0,84
1254.0,608.0,7,41,0,83
1254.0,608.0,7,41,0,84
1254.0,608.0,7,41,0,83
1254.0,608.0,7,41,0,83
1255.0,611.0,7,41,0,83
1255.0,611.0,7,41,0,83
1255.0,611.0,7,41,0,83
1255.0,611.0,7,41,0,83
1256.0,614.0,7,41,0,83
1256.0,614.0,7,41,0,83
1256.0,615.0,7,41,0,83
1256.0,615.0,7,41,0,83
1256.0,615.0,7,41,0,83
1257.0,617.0,7,41,0,82
1257.0,617.0,7,40,0,83
1257.0,617.0,7,40,0,82
1257.0,617.0,7,40,0,82
1258.0,619.0,7,40,0,82
1258.0,619.0,7,40,0,82
1258.0,622.0,7,40,0,82
1258.0,622.0,7,40,0,83
1258.0,622.0,7,40,0,83
1259.0,623.0,7,40,0,83
1259.0,623.0,7,40,0,83
1259.0,623.0,7,39,0,82
1259.0,624.0,7,39,0,82
1259.0,624.0,7,39,0,82
1260.0,626.0,7,39,0,82
1260.0,626.0,7,39,0,82
1260.0,626.0,7,39,0,82
1260.0,629.0,7,39,0,82
1260.0,629.0,7,39,0,81
1261.0,630.0,7,39,0,81
1261.0,630.0,7,39,0,81
1262.0,632.0,7,39,0,81
1262.0,632.0,7,39,0,81
1262.0,633.0,7,39,0,81
1262.0,633.0,7,39,0,81
1263.0,635.0,7,39,0,81
1263.0,635.0,7,39,0,81
1263.0,635.0,7,39,0,81
1263.0,636.0,7,39,0,81
1263.0,636.0,7,39,0,81
1264.0,638.0,7,39,0,80
1264.0,638.0,7,39,0,80
1264.0,638.0,7,39,0,80
1264.0,638.0,7,39,0,80
1264.0,638.0,7,39,0,80
1264.0,639.0,7,39,0,80
1264.0,639.0,7,39,0,79
1266.0,643.0,7,39,0,79
1266.0,643.0,7,39,0,79
1266.0,645.0,7,39,0,79
1266.0,645.0,7,39,0,79
1266.0,646.0,7,39,0,79
1266.0,646.0,7,39,0,79
1266.0,646.0,7,39,0,79
1267.0,647.0,7,39,0,79
1267.0,647.0,7,39,0,79
1268.0,651.0,7,39,0,79
1268.0,651.0,7,39,0,79
1268.0,652.0,7,39,0,79
1268.0,652.0,7,39,0,79
1268.0,652.0,7,39,0,79
1269.0,653.0,7,39,0,79
1269.0,653.0,7,39,0,79
1270.0,655.0,7,39,0,79
1270.0,655.0,7,39,0,78
1270.0,655.0,7,39,0,78
1270.0,658.0,7,39,0,78
1270.0,658.0,7,39,0,78
1270.0,659.0,7,39,0,78
1270.0,659.0,7,39,0,78
1271.0,661.0,7,39,0,78
1271.0,661.0,7,38,0,78
1272.0,662.0,7,38,0,78
1272.0,662.0,7,38,0,78
1272.0,662.0,7,38,0,78
1272.0,664.0,7,38,0,78
1272.0,664.0,7,38,0,77
1273.0,666.0,7,38,0,77
1273.0,666.0,7,38,0,77
1274.0,668.0,7,38,0,77
1274.0,668.0,7,38,0,77
1275.0,670.0,7,38,0,77
1275.0,670.0,7,38,0,77
1275.0,671.0,7,38,0,77
1275.0,671.0,7,38,0,76
1275.0,672.0,7,38,0,76
1275.0,672.0,7,38,0,76
1276.0,675.0,7,38,0,77
1276.0,675.0,7,38,0,78
1277.0,676.0,7,38,0,78
1277.0,676.0,7,38,0,78
1277.0,679.0,7,38,0,78
1277.0,679.0,7,38,0,78
1277.0,679.0,7,38,0,77
1277.0,679.0,7,37,0,77
1278.0,681.0,7,38,0,77
1278.0,681.0,7,38,0,77
1278.0,681.0,7,37,0,77
1279.0,683.0,7,37,0,76
1279.0,683.0,7,37,0,76
1280.0,686.0,7,37,0,76
1280.0,686.0,7,37,0,76
1280.0,687.0,7,37,0,76
1280.0,687.0,7,37,0,76
1280.0,687.0,7,37,0,76
1281.0,688.0,7,37,0,76
1281.0,688.0,7,37,0,76
1281.0,689.0,7,36,0,76
1281.0,689.0,7,36,0,76
1282.0,692.0,7,37,0,76
1283.0,694.0,7,36,0,76
1283.0,694.0,7,36,0,76
1283.0,695.0,7,36,0,76
1283.0,695.0,7,36,0,76
1284.0,698.0,7,36,0,76
1284.0,698.0,7,36,0,76
1284.0,700.0,7,36,0,75
1284.0,700.0,7,36,0,75
1285.0,701.0,7,36,0,75
1285.0,701.0,7,36,0,75
1286.0,702.0,7,36,0,75
1286.0,702.0,7,36,0,75
1287.0,705.0,7,36,0,75
1287.0,705.0,7,36,0,75
1287.0,705.0,7,36,0,75
1287.0,707.0,7,36,0,75
1287.0,707.0,7,36,0,75
1288.0,709.0,7,36,0,74
1288.0,709.0,7,36,0,74
1288.0,710.0,7,35,0,74
1288.0,710.0,7,36,0,74
1288.0,710.0,7,35,0,73
1289.0,712.0,7,35,0,73
1289.0,712.0,7,35,0,73
1289.0,714.0,7,35,0,74
1289.0,714.0,7,35,0,74
1290.0,716.0,7,35,0,74
1290.0,716.0,7,35,0,74
1290.0,716.0,7,35,0,73
1291.0,718.0,7,35,0,73
1291.0,718.0,7,35,0,73
1292.0,719.0,7,35,0,73
1292.0,722.0,7,35,0,73
1292.0,722.0,7,35,0,73
1292.0,722.0,7,35,0,73
1293.0,723.0,7,35,0,73
1293.0,723.0,7,35,0,73
1293.0,724.0,7,35,0,73
1293.0,724.0,7,35,0,73
1293.0,724.0,7,35,0,73
1294.0,726.0,7,35,0,72
1294.0,726.0,7,35,0,72
1294.0,726.0,7,35,0,72
1294.0,726.0,7,35,0,72
1295.0,729.0,7,35,0,72
1295.0,729.0,7,35,0,73
1296.0,732.0,7,35,0,78
1296.0,732.0,7,35,0,78
1296.0,732.0,7,35,0,78
1298.0,735.0,7,35,0,77
1298.0,735.0,7,35,0,77
1298.0,737.0,7,35,0,77
1298.0,737.0,7,35,0,77
1298.0,738.0,7,35,0,77
1298.0,738.0,7,35,0,77
1298.0,738.0,7,35,0,76
1300.0,741.0,7,35,0,76
1300.0,741.0,7,35,0,76
1300.0,741.0,7,35,0,76
1300.0,742.0,7,35,0,76
1300.0,742.0,7,35,0,76
1300.0,742.0,7,34,0,76
1301.0,744.0,7,34,0,76
1301.0,744.0,7,34,0,76
1301.0,745.0,7,34,0,76
1301.0,745.0,7,34,0,76
1301.0,745.0,7,34,0,76
1302.0,748.0,7,34,0,76
1302.0,748.0,7,34,0,76
1303.0,750.0,7,34,0,76
1303.0,750.0,7,34,0,76
1303.0,750.0,7,34,0,76
1303.0,751.0,7,34,0,76
1305.0,754.0,7,34,0,76
1305.0,754.0,7,34,0,76
1305.0,754.0,7,33,0,76
1306.0,755.0,7,34,0,76
1306.0,755.0,7,33,0,76
1306.0,757.0,7,33,0,76
1306.0,757.0,7,33,0,75
1307.0,760.0,7,33,0,75
1307.0,760.0,7,33,0,75
1307.0,760.0,7,33,0,75
1308.0,761.0,7,33,0,75
1309.0,763.0,7,33,0,75
1309.0,763.0,7,33,0,75
1309.0,763.0,7,33,0,75
1310.0,766.0,7,33,0,75
1310.0,766.0,7,33,0,75
1310.0,766.0,6,33,0,75
1310.0,766.0,7,33,0,74
1312.0,768.0,7,33,0,74
1312.0,768.0,7,33,0,78
1312.0,768.0,7,33,0,77
1312.0,771.0,7,33,0,77
1312.0,771.0,7,33,0,77
1314.0,773.0,7,33,0,77
1314.0,773.0,7,33,0,77
1315.0,775.0,7,33,0,76
1315.0,775.0,7,33,0,76
1315.0,775.0,7,33,0,76
1316.0,776.0,7,33,0,76
1316.0,776.0,7,33,0,76
1317.0,778.0,7,33,0,76
1317.0,778.0,7,33,0,76
1317.0,781.0,7,33,0,76
1317.0,781.0,6,33,0,76
1317.0,781.0,7,33,0,76
1319.0,782.0,6,33,0,76
1319.0,782.0,7,32,0,76
1319.0,783.0,7,32,0,76
1319.0,783.0,7,32,0,76
1320.0,785.0,7,32,0,76
1322.0,787.0,7,32,0,76
1322.0,787.0,6,32,0,75
1322.0,787.0,6,32,0,75
1322.0,788.0,6,32,0,78
1322.0,788.0,7,32,0,79
1324.0,791.0,6,32,0,79
1324.0,791.0,6,32,0,79
1325.0,793.0,6,31,0,79
1325.0,793.0,7,32,0,79
1326.0,795.0,6,32,0,79
1326.0,795.0,6,31,0,79
1326.0,795.0,7,31,0,79
1328.0,797.0,6,31,0,79
1328.0,797.0,6,31,0,79
1329.0,799.0,7,31,0,79
1329.0,799.0,7,31,0,79
1331.0,801.0,6,31,0,79
1331.0,801.0,6,31,0,79
1331.0,802.0,6,31,0,78
1331.0,802.0,7,31,0,78
1331.0,802.0,6,31,0,78
1332.0,804.0,6,31,0,78
1332.0,804.0,6,31,0,78
1333.0,806.0,6,31,0,78
1333.0,806.0,6,31,0,78
1335.0,807.0,6,31,0,80
1335.0,807.0,6,31,0,79
1336.0,810.0,6,31,0,79
1336.0,810.0,6,31,0,79
1336.0,810.0,6,31,0,79
1338.0,812.0,6,31,0,79
1338.0,812.0,6,31,0,79
1339.0,813.0,6,31,0,79
1339.0,813.0,6,31,0,79
1341.0,816.0,6,31,0,79
1341.0,816.0,6,31,0,79
1341.0,816.0,6,31,0,79
1342.0,817.0,6,31,0,79
1342.0,817.0,6,31,0,79
1343.0,818.0,6,31,0,79
1343.0,818.0,6,31,0,79
1344.0,821.0,6,31,0,79
1344.0,821.0,6,31,0,79
1346.0,822.0,6,31,0,78
1346.0,822.0,6,31,0,78
1346.0,822.0,6,31,0,78
1346.0,823.0,6,31,0,78
1346.0,823.0,6,31,0,78
1349.0,826.0,6,31,0,78
1349.0,826.0,6,31,0,78
1350.0,827.0,6,31,0,78
1350.0,827.0,6,31,0,78
1352.0,829.0,6,31,0,78
1352.0,829.0,6,31,0,78
1354.0,831.0,6,31,0,78
1354.0,831.0,6,31,0,78
1355.0,833.0,6,31,0,77
1355.0,833.0,6,31,0,77
1357.0,835.0,6,31,0,77
1357.0,835.0,6,30,0,77
1357.0,835.0,6,31,0,77
1359.0,837.0,6,30,0,77
1359.0,837.0,6,30,0,76
1360.0,838.0,6,30,0,77
1360.0,838.0,6,30,0,76
1362.0,841.0,6,30,0,76
1362.0,841.0,6,30,0,76
1364.0,843.0,6,30,0,76
1364.0,843.0,6,30,0,76
1366.0,844.0,6,30,0,76
1366.0,844.0,6,30,0,76
1366.0,844.0,6,30,0,78
1367.0,846.0,6,30,0,78
1367.0,846.0,7,30,0,78
1370.0,848.0,7,30,0,77
1370.0,848.0,7,30,0,77
1370.0,848.0,7,30,0,77
1371.0,849.0,7,30,0,77
1371.0,849.0,7,30,0,77
1372.0,851.0,7,30,0,77
1372.0,851.0,7,30,0,77
1372.0,851.0,7,30,0,76
1375.0,853.0,7,30,0,76
1377.0,855.0,7,30,0,76
1377.0,855.0,7,30,0,76
1377.0,855.0,7,30,0,76
1378.0,856.0,7,30,0,76
1378.0,856.0,7,30,0,76
1381.0,858.0,7,30,0,76
1381.0,858.0,7,30,0,76
1382.0,859.0,7,30,0,76
1382.0,859.0,7,29,0,76
1383.0,861.0,7,29,0,76
1383.0,861.0,7,30,0,76
1385.0,863.0,7,29,0,76
1385.0,863.0,7,29,0,76
1385.0,863.0,7,29,0,76
1385.0,863.0,7,29,0,76
1387.0,864.0,7,29,0,76
1387.0,864.0,7,29,0,76
1387.0,864.0,7,29,0,75
1390.0,867.0,7,29,0,75
1390.0,867.0,7,29,0,75
1395.0,870.0,7,29,0,75
1395.0,870.0,7,29,0,75
1398.0,873.0,7,29,0,75
1398.0,873.0,7,29,0,75
1400.0,874.0,7,29,0,75
1400.0,874.0,7,29,0,75
1403.0,876.0,7,29,0,75
1403.0,876.0,7,29,0,74
1403.0,876.0,7,29,0,74
1404.0,877.0,7,28,0,74
1404.0,877.0,7,28,0,74
1407.0,879.0,7,28,0,74
1407.0,879.0,7,28,0,73
1410.0,881.0,7,28,0,73
1410.0,881.0,7,28,0,75
1410.0,881.0,7,28,0,76
1413.0,883.0,7,28,0,76
1413.0,883.0,7,28,0,76
1413.0,884.0,7,28,0,76
1413.0,884.0,7,28,0,76
1416.0,886.0,7,28,0,76
1416.0,886.0,7,28,0,76
1419.0,887.0,7,28,0,76
1419.0,887.0,7,28,0,76
1419.0,887.0,7,28,0,76
1422.0,889.0,7,28,0,76
1422.0,889.0,7,28,0,75
1424.0,891.0,7,28,0,75
1424.0,891.0,7,28,0,75
1426.0,892.0,7,28,0,75
1426.0,892.0,7,28,0,75
1428.0,893.0,7,28,0,75
1428.0,893.0,7,28,0,75
1431.0,895.0,7,28,0,75
1431.0,895.0,7,28,0,75
1431.0,895.0,7,28,0,75
1434.0,897.0,7,28,0,75
1434.0,897.0,7,28,0,75
1434.0,897.0,7,28,0,79
1434.0,897.0,7,28,0,97
1436.0,898.0,7,28,0,103
1436.0,898.0,7,28,0,103
1439.0,901.0,7,28,0,103
1439.0,901.0,7,28,0,102
1439.0,901.0,7,28,0,102
1447.0,905.0,7,28,0,102
1447.0,905.0,7,28,0,102
1447.0,905.0,7,28,0,102
1450.0,906.0,7,28,0,101
1450.0,906.0,7,28,0,101
1451.0,908.0,7,28,0,101
1451.0,908.0,7,28,0,100
1454.0,908.0,7,28,0,100
1454.0,908.0,7,28,0,100
1458.0,911.0,7,28,0,100
1458.0,911.0,7,28,0,100
1458.0,911.0,7,28,0,100
1460.0,913.0,7,27,0,99
1460.0,913.0,7,28,0,99
1462.0,913.0,7,27,0,99
1462.0,913.0,7,27,0,99
1462.0,913.0,7,27,0,99
1466.0,915.0,7,27,0,99
1466.0,915.0,7,27,0,99
1470.0,917.0,7,27,0,99
1470.0,917.0,7,27,0,99
1472.0,918.0,7,27,0,99
1472.0,918.0,7,27,0,99
1472.0,918.0,7,27,0,99
1475.0,920.0,6,27,0,99
1475.0,920.0,7,27,0,99
1479.0,921.0,7,27,0,98
1479.0,921.0,7,27,0,98
1481.0,922.0,7,27,0,98
1481.0,922.0,7,27,0,98
1481.0,922.0,7,27,0,97
1485.0,924.0,6,27,0,97
1485.0,924.0,7,27,0,97
1488.0,925.0,6,27,0,97
1492.0,927.0,7,27,0,97
1492.0,927.0,6,27,0,97
1492.0,927.0,6,27,0,97
1495.0,929.0,7,27,0,97
1495.0,929.0,7,27,0,97
1497.0,929.0,6,27,0,97
1497.0,929.0,7,27,0,96
1501.0,931.0,7,27,0,96
1501.0,931.0,7,27,0,96
1505.0,933.0,7,27,0,96
1505.0,933.0,7,27,0,96
1509.0,935.0,7,27,0,96
1509.0,935.0,7,27,0,96
1511.0,936.0,7,27,0,96
1511.0,936.0,7,27,0,96
1515.0,937.0,7,26,0,96
1515.0,937.0,7,26,0,96
1519.0,939.0,7,26,0,96
1519.0,939.0,7,26,0,95
1519.0,939.0,7,26,0,95
1519.0,939.0,7,26,0,95
1519.0,939.0,7,26,0,95
1523.0,940.0,7,26,0,95
1523.0,940.0,7,26,0,95
1533.0,944.0,7,26,0,95
1533.0,944.0,7,26,0,95
1533.0,944.0,7,26,0,94
1536.0,944.0,7,25,0,94
1536.0,944.0,7,26,0,96
1539.0,946.0,7,25,0,96
1539.0,946.0,7,25,0,96
1543.0,948.0,7,25,0,96
1543.0,948.0,7,25,0,96
1548.0,949.0,7,25,0,96
1548.0,949.0,7,25,0,96
1552.0,950.0,7,25,0,96
1552.0,950.0,7,25,0,96
1556.0,951.0,7,25,0,95
1556.0,951.0,7,25,0,95
1558.0,952.0,7,25,0,95
1558.0,952.0,7,25,0,95
1558.0,952.0,7,25,0,95
1563.0,954.0,7,25,0,95
1563.0,954.0,7,25,0,95
1568.0,955.0,7,25,0,95
1568.0,955.0,7,25,0,94
1572.0,956.0,7,25,0,94
1572.0,956.0,7,25,0,94
1572.0,956.0,7,25,0,94
1575.0,957.0,7,25,0,94
1575.0,957.0,7,25,0,94
1581.0,959.0,7,25,0,94
1581.0,959.0,7,25,0,94
1586.0,961.0,7,25,0,94
1586.0,961.0,7,25,0,94
1589.0,962.0,7,25,0,94
1589.0,962.0,7,25,0,93
1589.0,962.0,7,25,0,93
1594.0,963.0,7,25,0,93
1594.0,963.0,7,25,0,93
1599.0,964.0,7,25,0,93
1599.0,964.0,7,25,0,92
1603.0,965.0,7,25,0,92
1603.0,965.0,7,25,0,92
1603.0,965.0,7,24,0,92
1606.0,966.0,7,24,0,92
1606.0,966.0,7,25,0,92
1612.0,968.0,7,24,0,92
1612.0,968.0,7,24,0,92
1612.0,968.0,7,24,0,92
1618.0,969.0,7,24,0,92
1618.0,969.0,7,24,0,92
1622.0,970.0,7,24,0,92
1622.0,970.0,7,24,0,92
1622.0,970.0,7,24,0,93
1626.0,971.0,7,24,0,95
1626.0,971.0,7,24,0,95
1626.0,971.0,7,24,0,95
1626.0,971.0,7,24,0,95
1632.0,972.0,7,24,0,95
1632.0,972.0,7,24,0,94
1643.0,975.0,7,24,0,94
1643.0,975.0,7,24,0,94
1648.0,976.0,7,24,0,94
1648.0,976.0,7,24,0,94
1653.0,977.0,7,24,0,94
1653.0,977.0,7,24,0,94
1659.0,978.0,7,24,0,94
1659.0,978.0,7,24,0,94
1663.0,979.0,7,24,0,94
1663.0,979.0,7,24,0,93
1669.0,980.0,7,24,0,93
1669.0,980.0,7,24,0,93
1669.0,980.0,7,24,0,93
1674.0,981.0,7,24,0,93
1674.0,981.0,7,24,0,93
1680.0,982.0,7,24,0,92
1680.0,982.0,7,24,0,92
1684.0,983.0,7,24,0,92
1684.0,983.0,7,24,0,92
1690.0,984.0,7,24,0,92
1690.0,984.0,7,24,0,92
1693.0,985.0,7,24,0,92
1693.0,985.0,7,24,0,92
1700.0,985.0,7,24,0,92
1700.0,985.0,7,24,0,92
1700.0,985.0,7,24,0,92
1705.0,986.0,7,24,0,92
1705.0,986.0,7,24,0,92
1711.0,987.0,7,24,0,91
1711.0,987.0,7,24,0,91
1717.0,988.0,7,24,0,91
1721.0,989.0,7,24,0,91
1721.0,989.0,7,24,0,91
1721.0,989.0,7,24,0,91
1726.0,990.0,7,24,0,91
1726.0,990.0,7,24,0,91
1733.0,991.0,7,24,0,91
1733.0,991.0,7,24,0,91
1739.0,992.0,7,24,0,90
1739.0,992.0,7,24,0,95
1742.0,993.0,7,24,0,95
1742.0,993.0,7,24,0,95
1748.0,994.0,7,24,0,95
1748.0,994.0,7,24,0,95
1748.0,994.0,7,24,0,95
1753.0,994.0,7,24,0,94
1753.0,994.0,7,24,0,94
1753.0,994.0,7,24,0,94
1760.0,995.0,7,24,0,94
1760.0,995.0,7,24,0,94
1760.0,995.0,7,24,0,94
1760.0,995.0,7,24,0,94
1760.0,995.0,7,24,0,94
1766.0,996.0,7,24,0,94
1766.0,996.0,7,24,0,93
1779.0,998.0,7,24,0,93
1779.0,998.0,7,24,0,93
1785.0,999.0,7,24,0,93
1785.0,999.0,7,24,0,93
1785.0,999.0,7,23,0,93
1790.0,999.0,7,24,0,92
1790.0,999.0,7,24,0,92
1790.0,999.0,7,24,0,92
1797.0,1000.0,7,24,0,92
1797.0,1000.0,7,24,0,92
1803.0,1001.0,7,24,0,92
1803.0,1001.0,7,24,0,92
1808.0,1002.0,7,24,0,92
1808.0,1002.0,7,24,0,92
1814.0,1002.0,7,24,0,92
1818.0,1003.0,7,24,0,92
1818.0,1003.0,7,24,0,92
1818.0,1003.0,7,24,0,92
1825.0,1003.0,7,24,0,92
1825.0,1003.0,7,24,0,91
1825.0,1003.0,7,24,0,91
1830.0,1003.0,7,24,0,91
1830.0,1003.0,7,24,0,91
1836.0,1004.0,7,24,0,91
1836.0,1004.0,7,24,0,91
1836.0,1004.0,7,24,0,91
1841.0,1004.0,7,24,0,91
1841.0,1004.0,7,24,0,91
1847.0,1005.0,7,24,0,90
1854.0,1006.0,7,24,0,90
1854.0,1006.0,7,24,0,91
1859.0,1006.0,7,24,0,92
1859.0,1006.0,7,24,0,92
1859.0,1006.0,7,24,0,92
1865.0,1007.0,7,24,0,92
1865.0,1007.0,7,24,0,92
1870.0,1007.0,7,24,0,92
1870.0,1007.0,7,24,0,92
1876.0,1008.0,7,24,0,91
1876.0,1008.0,7,24,0,91
1876.0,1008.0,7,24,0,91
1883.0,1009.0,7,24,0,91
1883.0,1009.0,7,24,0,91
1888.0,1009.0,7,24,0,91
1888.0,1009.0,7,24,0,91
1894.0,1010.0,7,24,0,91
1894.0,1010.0,7,24,0,91
1899.0,1010.0,7,24,0,90
1899.0,1010.0,7,24,0,90
1905.0,1011.0,7,24,0,90
1905.0,1011.0,7,24,0,90
1905.0,1011.0,7,24,0,89
1911.0,1011.0,7,24,0,89
1911.0,1011.0,7,24,0,89
1917.0,1012.0,7,24,0,89
1917.0,1012.0,7,24,0,89
1917.0,1012.0,7,24,0,89
1929.0,1013.0,7,24,0,89
1929.0,1013.0,7,24,0,89
1929.0,1013.0,7,24,0,89
1935.0,1014.0,7,24,0,89
1935.0,1014.0,7,24,0,89
1942.0,1014.0,7,24,0,88
1942.0,1014.0,7,24,0,89
1947.0,1015.0,7,23,0,88
1947.0,1015.0,7,23,0,88
1947.0,1015.0,7,23,0,88
1953.0,1015.0,7,23,0,88
1953.0,1015.0,7,23,0,88
1958.0,1016.0,7,23,0,88
1958.0,1016.0,7,23,0,88
1964.0,1016.0,7,23,0,88
1964.0,1016.0,7,23,0,88
1971.0,1017.0,7,23,0,88
1971.0,1017.0,7,23,0,88
1976.0,1017.0,7,23,0,88
1976.0,1017.0,7,23,0,88
1976.0,1017.0,7,23,0,88
1982.0,1018.0,7,23,0,88
1982.0,1018.0,7,23,0,88
1987.0,1018.0,7,23,0,88
1987.0,1018.0,7,23,0,87
1993.0,1019.0,7,23,0,87
1993.0,1019.0,7,23,0,87
1993.0,1019.0,7,23,0,87
1999.0,1019.0,7,23,0,87
1999.0,1019.0,7,23,0,87
2005.0,1020.0,7,23,0,87
2010.0,1020.0,7,23,0,87
2010.0,1020.0,7,23,0,86
2010.0,1020.0,7,23,0,86
2016.0,1020.0,7,23,0,86
2016.0,1020.0,7,23,0,86
2022.0,1020.0,7,23,0,86
2022.0,1020.0,7,23,0,86
2022.0,1020.0,7,23,0,86
2022.0,1020.0,7,23,0,86
2028.0,1021.0,7,23,0,86
2028.0,1021.0,7,22,0,86
2042.0,1023.0,7,22,0,85
2042.0,1023.0,7,22,0,85
2047.0,1024.0,7,22,0,88
2047.0,1024.0,7,22,0,88
2047.0,1024.0,7,22,0,88
2054.0,1024.0,7,22,0,88
2054.0,1024.0,7,22,0,88
2054.0,1024.0,7,22,0,88
2060.0,1024.0,7,22,0,88
2060.0,1024.0,7,22,0,88
2060.0,1024.0,7,22,0,87
2065.0,1024.0,7,22,0,87
2065.0,1024.0,7,22,0,87
2069.0,1024.0,7,22,0,87
2069.0,1024.0,7,22,0,87
2069.0,1024.0,7,22,0,87
2075.0,1025.0,7,22,0,87
2075.0,1025.0,7,22,0,87
2075.0,1025.0,7,22,0,86
2075.0,1025.0,7,22,0,86
2082.0,1025.0,7,22,0,86
2082.0,1025.0,7,22,0,86
2087.0,1026.0,7,22,0,86
2087.0,1026.0,7,22,0,86
2098.0,1027.0,7,22,0,86
2098.0,1027.0,7,22,0,86
2103.0,1028.0,7,22,0,86
2103.0,1028.0,7,22,0,86
2110.0,1028.0,7,22,0,86
2110.0,1028.0,7,22,0,86
2116.0,1029.0,7,22,0,86
2116.0,1029.0,7,22,0,85
2121.0,1029.0,7,22,0,85
2121.0,1029.0,7,22,0,85
2126.0,1030.0,7,22,0,85
2126.0,1030.0,7,22,0,85
2126.0,1030.0,7,22,0,84
2131.0,1030.0,7,21,0,84
2131.0,1030.0,7,21,0,84
2134.0,1031.0,7,21,0,84
2134.0,1031.0,7,22,0,84
2134.0,1031.0,7,21,0,84
2141.0,1031.0,7,21,0,84
2141.0,1031.0,7,21,0,84
2146.0,1032.0,7,21,0,84
2146.0,1032.0,7,21,0,84
2151.0,1033.0,7,21,0,83
2151.0,1033.0,7,21,0,83
2151.0,1033.0,7,21,0,83
2156.0,1033.0,7,21,0,85
2156.0,1033.0,7,21,0,85
2159.0,1033.0,7,21,0,85
2159.0,1033.0,7,21,0,85
2159.0,1033.0,7,21,0,84
2166.0,1033.0,7,21,0,84
2166.0,1033.0,7,21,0,84
2166.0,1033.0,7,21,0,84
2170.0,1034.0,7,21,0,84
2170.0,1034.0,7,21,0,84
2170.0,1034.0,7,20,0,84
2170.0,1034.0,7,20,0,84
2170.0,1034.0,7,20,0,84
2173.0,1034.0,7,20,0,83
2173.0,1034.0,7,20,0,83
2179.0,1035.0,7,20,0,83
2179.0,1035.0,7,20,0,83
2188.0,1036.0,7,20,0,83
2188.0,1036.0,7,20,0,83
2188.0,1036.0,7,20,0,83
2195.0,1037.0,7,20,0,83
2195.0,1037.0,7,20,0,85
2199.0,1037.0,7,20,0,85
2202.0,1038.0,7,20,0,84
2202.0,1038.0,7,20,0,84
2202.0,1038.0,7,20,0,84
2208.0,1039.0,7,20,0,84
2208.0,1039.0,7,20,0,84
2210.0,1039.0,7,20,0,84
2210.0,1039.0,7,20,0,84
2215.0,1040.0,7,20,0,83
2215.0,1040.0,7,20,0,83
2219.0,1041.0,7,20,0,83
2219.0,1041.0,7,20,0,83
2222.0,1041.0,7,20,0,83
2222.0,1041.0,7,20,0,83
2227.0,1042.0,7,20,0,83
2227.0,1042.0,7,20,0,83
2227.0,1042.0,7,20,0,83
2231.0,1042.0,7,20,0,83
2231.0,1042.0,7,20,0,83
2235.0,1043.0,7,20,1,83
2235.0,1043.0,7,20,1,83
2238.0,1044.0,7,20,1,83
2238.0,1044.0,7,20,1,83
2240.0,1044.0,7,20,1,83
2240.0,1044.0,7,20,1,83
2240.0,1044.0,7,20,1,83
2245.0,1045.0,7,20,1,83
2245.0,1045.0,7,20,1,83
2248.0,1046.0,7,19,1,83
2248.0,1046.0,7,20,1,83
2252.0,1046.0,7,19,1,83
2252.0,1046.0,7,19,1,83
2255.0,1047.0,7,19,1,83
2255.0,1047.0,7,19,1,83
2257.0,1047.0,7,19,1,83
2257.0,1047.0,7,19,1,83
2257.0,1047.0,7,19,1,82
2261.0,1048.0,7,19,1,82
2261.0,1048.0,7,19,1,82
2264.0,1049.0,7,19,1,82
2264.0,1049.0,7,19,1,82
2267.0,1050.0,7,19,1,82
2267.0,1050.0,7,19,1,82
2270.0,1050.0,7,19,1,81
2270.0,1050.0,7,19,1,81
2270.0,1050.0,7,19,1,81
2273.0,1051.0,7,19,1,81
2273.0,1051.0,7,19,1,81
2276.0,1052.0,7,19,1,81
2276.0,1052.0,7,19,1,81
2278.0,1053.0,7,19,1,81
2278.0,1053.0,7,19,1,81
2281.0,1053.0,7,19,1,81
2281.0,1053.0,7,19,1,81
2281.0,1053.0,7,19,1,81
2283.0,1054.0,7,19,1,81
2283.0,1054.0,7,19,1,81
2284.0,1055.0,7,19,1,80
2284.0,1055.0,7,19,1,80
2287.0,1055.0,7,19,1,80
2287.0,1055.0,7,19,1,80
2290.0,1056.0,7,19,1,80
2290.0,1056.0,7,19,1,79
2290.0,1056.0,7,19,1,79
2291.0,1057.0,7,19,1,79
2291.0,1057.0,7,19,1,79
2293.0,1058.0,7,19,1,79
2293.0,1058.0,7,19,1,79
2297.0,1058.0,7,19,1,79
2298.0,1059.0,7,19,1,79
2298.0,1059.0,7,19,1,79
2300.0,1060.0,7,19,1,79
2300.0,1060.0,7,19,1,79
2300.0,1060.0,7,19,1,79
2302.0,1061.0,7,19,1,79
2302.0,1061.0,7,19,1,79
2303.0,1062.0,7,19,1,79
2303.0,1062.0,7,19,1,79
2306.0,1063.0,6,19,1,79
2306.0,1063.0,7,19,1,79
2308.0,1064.0,7,19,1,79
2308.0,1064.0,7,19,1,79
2309.0,1065.0,7,19,1,79
2309.0,1065.0,7,19,1,78
2311.0,1065.0,7,19,1,78
2311.0,1065.0,7,19,1,78
2312.0,1066.0,7,19,1,78
2312.0,1066.0,7,19,1,78
2314.0,1067.0,7,19,1,78
2314.0,1067.0,6,19,1,78
2314.0,1067.0,7,19,1,78
2315.0,1068.0,7,19,1,78
2315.0,1068.0,7,19,1,78
2317.0,1069.0,7,19,1,78
2317.0,1069.0,7,18,1,78
2317.0,1070.0,7,19,1,78
2317.0,1070.0,7,18,1,78
2318.0,1071.0,7,18,1,78
2318.0,1071.0,6,18,1,78
2318.0,1071.0,6,18,1,77
2319.0,1071.0,7,19,1,77
2319.0,1071.0,7,18,1,77
2319.0,1071.0,6,18,1,77
2319.0,1071.0,6,18,1,77
2321.0,1073.0,6,18,1,77
2321.0,1073.0,7,18,1,77
2323.0,1075.0,6,18,1,77
2323.0,1075.0,6,18,1,76
2323.0,1075.0,6,18,1,76
2323.0,1076.0,6,18,1,76
2323.0,1076.0,6,18,1,76
2325.0,1076.0,6,18,1,76
2325.0,1076.0,6,18,1,76
2325.0,1076.0,6,18,1,76
2325.0,1078.0,6,18,1,76
2325.0,1078.0,6,18,1,76
2327.0,1079.0,6,18,1,80
2327.0,1079.0,6,18,1,81
2327.0,1079.0,6,18,1,80
2328.0,1080.0,6,18,1,80
2328.0,1080.0,6,18,1,80
2328.0,1082.0,6,18,1,80
2328.0,1082.0,6,18,1,79
2329.0,1083.0,6,18,1,79
2329.0,1083.0,6,18,1,79
2329.0,1083.0,6,18,1,79
2329.0,1084.0,6,18,1,79
2329.0,1084.0,6,18,1,79
2330.0,1085.0,6,18,1,79
2330.0,1085.0,6,18,1,79
2330.0,1086.0,6,18,1,79
2330.0,1086.0,6,18,1,79
2331.0,1086.0,6,17,1,79
2331.0,1086.0,6,17,1,79
2331.0,1087.0,6,17,1,79
2331.0,1087.0,6,17,1,79
2331.0,1087.0,6,17,1,79
2331.0,1089.0,6,17,1,79
2331.0,1089.0,6,17,1,86
2331.0,1091.0,6,17,1,85
2331.0,1091.0,6,17,1,85
2332.0,1091.0,6,17,1,85
2332.0,1091.0,6,17,1,84
2332.0,1093.0,6,17,1,84
2332.0,1093.0,6,17,1,84
2332.0,1093.0,6,17,1,84
2332.0,1093.0,6,17,1,84
2332.0,1093.0,6,17,1,84
2332.0,1094.0,6,17,1,84
2332.0,1094.0,6,17,1,84
2332.0,1096.0,6,17,1,83
2332.0,1096.0,6,17,1,83
2332.0,1097.0,6,17,1,83
2332.0,1097.0,6,17,1,83
2332.0,1097.0,6,17,1,83
2332.0,1098.0,6,17,1,83
2332.0,1098.0,6,17,1,83
2332.0,1098.0,6,17,1,83
2332.0,1100.0,6,17,1,83
2332.0,1100.0,6,17,1,83
2332.0,1100.0,6,17,1,83
2332.0,1101.0,6,17,1,83
2332.0,1101.0,6,17,1,83
2332.0,1101.0,6,17,1,83
2332.0,1101.0,6,17,1,83
2332.0,1102.0,6,17,1,83
2332.0,1102.0,6,17,1,82
2332.0,1104.0,6,17,1,82
2332.0,1104.0,6,17,1,82
2332.0,1106.0,6,17,1,82
2332.0,1106.0,6,17,1,81
2332.0,1106.0,6,17,1,81
2332.0,1106.0,6,17,1,81
2332.0,1106.0,6,17,1,81
2332.0,1108.0,6,17,1,81
2332.0,1108.0,6,17,1,81
2331.0,1109.0,6,17,1,81
2331.0,1109.0,6,17,1,81
2331.0,1110.0,6,17,1,81
2331.0,1110.0,6,17,1,81
2331.0,1110.0,6,17,1,81
2330.0,1112.0,6,17,1,81
2330.0,1113.0,6,17,1,80
2330.0,1113.0,6,17,1,80
2330.0,1113.0,6,17,1,80
2329.0,1114.0,6,17,1,80
2329.0,1114.0,7,17,1,80
2329.0,1114.0,6,17,1,80
2328.0,1116.0,6,17,1,80
2328.0,1116.0,6,17,0,79
2328.0,1117.0,6,17,1,79
2328.0,1117.0,6,17,1,79
2327.0,1118.0,6,17,1,79
2327.0,1118.0,6,17,1,79
2327.0,1118.0,6,17,1,79
2326.0,1120.0,6,17,1,79
2326.0,1120.0,6,17,1,79
2326.0,1121.0,6,17,1,79
2326.0,1121.0,6,17,1,79
2325.0,1122.0,6,17,1,79
2325.0,1122.0,6,16,1,79
2324.0,1123.0,6,16,0,79
2324.0,1123.0,6,16,1,79
2323.0,1125.0,6,16,1,79
2323.0,1125.0,6,16,1,79
2322.0,1127.0,6,16,1,79
2322.0,1127.0,6,16,1,79
2320.0,1128.0,6,16,1,79
2320.0,1128.0,6,16,1,78
2320.0,1129.0,6,16,1,78
2320.0,1129.0,6,16,1,78
2319.0,1131.0,6,16,1,78
2319.0,1131.0,6,16,1,78
2318.0,1132.0,6,16,0,78
2318.0,1132.0,6,16,1,78
2318.0,1132.0,6,16,1,78
2318.0,1132.0,6,16,1,78
2316.0,1134.0,6,16,1,78
2316.0,1134.0,6,16,1,78
2313.0,1138.0,6,16,0,78
2313.0,1138.0,6,16,1,77
2311.0,1139.0,6,16,0,77
2311.0,1139.0,6,16,0,77
2310.0,1141.0,6,16,1,77
2310.0,1141.0,6,16,1,77
2310.0,1141.0,6,16,1,76
2308.0,1142.0,6,16,0,76
2308.0,1142.0,6,16,1,76
2306.0,1144.0,6,16,0,76
2306.0,1144.0,6,16,1,76
2306.0,1144.0,6,16,1,77
2306.0,1145.0,6,16,1,78
2306.0,1145.0,6,16,1,78
2304.0,1146.0,6,15,0,78
2304.0,1146.0,6,15,1,78
2304.0,1146.0,6,15,0,77
2303.0,1148.0,6,15,1,77
2303.0,1148.0,6,15,0,77
2303.0,1148.0,6,15,1,77
2301.0,1149.0,6,15,1,77
2301.0,1149.0,6,15,0,77
2299.0,1151.0,6,15,1,77
2299.0,1151.0,6,15,1,77
2299.0,1151.0,6,15,1,76
2298.0,1152.0,6,15,1,76
2298.0,1152.0,6,15,0,76
2294.0,1155.0,6,15,0,76
2294.0,1155.0,6,15,0,76
2294.0,1156.0,6,15,0,76
2294.0,1156.0,6,15,0,76
2294.0,1156.0,6,15,0,76
2291.0,1158.0,6,15,1,76
2291.0,1158.0,6,15,0,76
2289.0,1160.0,6,15,0,76
2289.0,1160.0,6,15,0,76
2287.0,1161.0,6,15,0,76
2287.0,1161.0,6,15,0,76
2287.0,1161.0,6,15,0,76
2285.0,1163.0,6,15,0,76
2285.0,1163.0,6,15,0,76
2283.0,1164.0,6,15,0,76
2283.0,1164.0,6,15,0,76
2281.0,1165.0,6,15,0,76
2281.0,1165.0,6,15,1,76
2279.0,1167.0,6,15,0,76
2279.0,1167.0,6,15,1,76
2279.0,1167.0,6,15,0,76
2277.0,1169.0,6,15,0,76
2277.0,1169.0,6,15,0,76
2275.0,1170.0,6,15,0,75
2275.0,1170.0,6,15,0,76
2275.0,1170.0,5,15,0,75
2272.0,1172.0,6,15,0,75
2272.0,1172.0,6,15,0,75
2270.0,1174.0,6,15,0,75
2270.0,1174.0,5,15,0,75
2266.0,1176.0,6,15,1,75
2266.0,1176.0,5,15,0,75
2264.0,1178.0,6,15,0,75
2264.0,1178.0,6,15,0,75
2264.0,1178.0,6,15,0,75
2261.0,1179.0,6,15,0,75
2261.0,1179.0,6,15,0,75
2260.0,1181.0,5,15,0,74
2260.0,1181.0,5,15,0,74
2257.0,1182.0,5,15,0,74
2257.0,1182.0,6,15,0,74
2257.0,1182.0,5,15,0,74
2254.0,1184.0,5,15,0,73
2254.0,1184.0,6,15,0,73
2252.0,1186.0,6,15,0,73
2252.0,1186.0,5,15,0,73
2249.0,1187.0,5,15,0,73
2249.0,1187.0,5,15,0,73
2245.0,1190.0,6,15,0,73
2245.0,1190.0,5,15,0,73
2245.0,1190.0,6,15,0,73
2243.0,1191.0,5,15,0,73
2243.0,1191.0,5,15,0,73
2241.0,1193.0,6,15,0,73
2241.0,1193.0,5,15,0,73
2241.0,1193.0,5,15,0,78
2238.0,1194.0,5,15,0,78
2238.0,1194.0,5,15,0,78
2234.0,1196.0,5,15,0,78
2234.0,1196.0,5,15,0,78
2232.0,1197.0,5,15,0,77
2232.0,1197.0,5,15,0,77
2229.0,1199.0,5,15,0,77
2229.0,1199.0,5,15,0,77
2229.0,1199.0,5,15,0,77
2226.0,1201.0,5,15,0,77
2221.0,1204.0,5,15,0,77
2221.0,1204.0,5,15,0,76
2221.0,1204.0,5,15,0,76
2219.0,1205.0,5,15,0,76
2219.0,1205.0,5,15,0,76
2216.0,1206.0,5,15,0,76
2216.0,1206.0,5,15,0,76
2212.0,1208.0,5,15,0,76
2212.0,1208.0,5,15,0,76
2212.0,1208.0,5,15,0,76
2208.0,1210.0,5,15,0,76
2208.0,1210.0,6,15,0,77
2204.0,1212.0,6,15,0,77
2204.0,1212.0,6,15,0,77
2202.0,1213.0,6,15,0,77
2202.0,1213.0,6,14,0,76
2202.0,1213.0,6,15,0,76
2199.0,1215.0,6,14,0,76
2196.0,1217.0,6,14,0,76
2196.0,1217.0,6,14,0,76
2196.0,1217.0,6,14,0,76
2196.0,1217.0,6,14,0,76
2196.0,1217.0,6,14,0,76
2192.0,1218.0,6,14,0,76
2192.0,1218.0,6,14,0,76
2182.0,1223.0,6,14,0,76
2182.0,1223.0,6,14,0,76
2179.0,1224.0,6,14,0,76
2179.0,1224.0,6,14,0,76
2176.0,1226.0,6,14,0,76
2176.0,1226.0,6,14,0,76
2171.0,1228.0,6,14,0,75
2171.0,1228.0,6,14,0,75
2168.0,1229.0,6,14,0,75
2168.0,1229.0,6,14,0,75
2168.0,1229.0,6,14,0,84
2165.0,1231.0,6,14,0,89
2165.0,1231.0,6,14,0,89
2161.0,1233.0,6,14,0,89
2161.0,1233.0,5,14,0,89
2156.0,1236.0,6,14,0,88
2156.0,1236.0,6,14,0,88
2156.0,1236.0,6,14,0,88
2153.0,1236.0,6,14,0,88
2153.0,1236.0,5,14,0,88
2149.0,1238.0,5,14,0,88
2149.0,1238.0,6,14,0,88
2146.0,1240.0,5,14,0,88
2146.0,1240.0,5,14,0,88
2141.0,1242.0,5,14,0,88
2141.0,1242.0,5,14,0,88
2141.0,1242.0,5,14,0,88
2139.0,1243.0,5,14,0,88
2139.0,1243.0,5,14,0,88
2134.0,1246.0,5,14,0,87
2134.0,1246.0,5,14,0,87
2134.0,1246.0,6,14,0,87
2129.0,1248.0,6,14,0,87
2129.0,1248.0,6,14,0,87
2129.0,1248.0,6,14,0,87
2127.0,1248.0,6,14,0,87
2127.0,1248.0,6,14,0,87
2122.0,1250.0,6,14,0,86
2122.0,1250.0,6,14,0,86
2122.0,1250.0,6,14,0,86
2119.0,1252.0,6,14,0,86
2119.0,1252.0,6,14,0,86
2119.0,1252.0,6,14,0,86
2114.0,1253.0,6,14,0,86
2114.0,1253.0,6,14,0,86
2110.0,1255.0,7,14,0,86
2110.0,1255.0,6,14,0,86
2107.0,1257.0,6,14,0,85
2107.0,1257.0,6,14,0,85
2107.0,1257.0,6,14,0,85
2102.0,1258.0,6,14,0,85
2102.0,1258.0,6,14,0,84
2102.0,1258.0,6,14,0,84
2102.0,1258.0,6,14,0,84
2102.0,1258.0,6,14,0,84
2100.0,1260.0,6,14,0,84
2100.0,1260.0,6,14,0,85
2089.0,1264.0,6,14,0,88
2089.0,1264.0,6,14,0,87
2086.0,1265.0,6,14,0,87
2086.0,1265.0,6,14,0,87
2081.0,1267.0,6,14,0,87
2081.0,1267.0,6,14,0,87
2079.0,1268.0,6,14,0,87
2079.0,1268.0,6,14,0,87
2074.0,1270.0,6,14,0,86
2074.0,1270.0,6,14,0,86
2074.0,1270.0,6,14,0,86
2069.0,1272.0,6,13,0,86
2069.0,1272.0,6,13,0,86
2066.0,1273.0,6,13,0,86
2066.0,1273.0,6,13,0,86
2066.0,1273.0,6,13,0,86
2062.0,1275.0,6,13,0,86
2059.0,1276.0,6,13,0,85
2059.0,1276.0,6,13,0,85
2059.0,1276.0,6,13,0,85
2054.0,1278.0,6,13,0,85
2054.0,1278.0,6,13,0,85
2050.0,1280.0,6,13,0,85
2050.0,1280.0,6,13,0,84
2050.0,1280.0,6,13,0,84
2050.0,1280.0,6,13,0,84
2046.0,1280.0,6,13,0,84
2046.0,1280.0,6,13,0,84
2041.0,1283.0,6,13,0,84
2041.0,1283.0,6,13,0,84
2031.0,1287.0,6,13,0,83
2031.0,1287.0,6,13,0,83
2028.0,1288.0,6,13,0,83
2028.0,1288.0,6,13,0,83
2028.0,1288.0,6,13,0,83
2024.0,1289.0,6,13,0,83
2024.0,1289.0,6,13,0,83
2019.0,1292.0,6,13,0,83
2019.0,1292.0,6,13,0,83
2014.0,1293.0,6,13,0,83
2014.0,1293.0,6,13,0,83
2011.0,1295.0,6,13,0,83
2011.0,1295.0,6,13,0,83
2011.0,1295.0,6,13,0,83
2005.0,1296.0,6,13,0,83
2005.0,1296.0,6,14,0,83
2002.0,1298.0,6,14,0,83
2002.0,1298.0,6,14,0,83
1999.0,1299.0,6,14,0,82
1999.0,1299.0,6,14,0,82
1994.0,1301.0,6,14,0,82
1994.0,1301.0,6,14,0,82
1994.0,1301.0,6,14,0,82
1991.0,1302.0,6,14,0,82
1991.0,1302.0,6,14,0,81
1986.0,1304.0,6,14,0,81
1986.0,1304.0,6,14,0,81
1984.0,1305.0,6,14,0,81
1984.0,1305.0,6,14,0,81
1979.0,1307.0,6,14,0,81
1979.0,1307.0,6,14,0,81
1979.0,1307.0,6,14,0,81
1976.0,1308.0,6,14,0,81
1976.0,1308.0,6,14,0,81
1976.0,1308.0,6,14,0,81
1971.0,1310.0,6,14,0,81
1971.0,1310.0,6,14,0,80
1967.0,1312.0,6,14,0,95
1967.0,1312.0,6,13,0,96
1964.0,1313.0,6,13,0,96
1964.0,1313.0,6,13,0,96
1959.0,1315.0,6,13,0,96
1959.0,1315.0,6,13,0,95
1956.0,1316.0,6,13,0,95
1956.0,1316.0,6,13,0,95
1956.0,1316.0,6,13,0,95
1953.0,1318.0,6,13,0,95
1953.0,1318.0,6,13,0,95
1949.0,1319.0,6,13,0,95
1949.0,1319.0,6,13,0,94
1944.0,1322.0,6,13,0,94
1944.0,1322.0,6,13,0,94
1944.0,1322.0,6,13,0,94
1941.0,1322.0,6,13,0,94
1941.0,1322.0,6,13,0,94
1936.0,1324.0,6,13,0,94
1936.0,1324.0,6,13,0,94
1935.0,1326.0,6,13,0,94
1935.0,1326.0,6,13,0,93
1935.0,1326.0,5,13,0,93
1929.0,1327.0,6,13,0,93
1929.0,1327.0,6,13,0,93
1927.0,1328.0,6,13,0,93
1927.0,1328.0,6,13,0,93
